2.679217,-0.529220,-0.511970,-0.563719,-0.563719,-0.563719,-0.615468,-0.598218,-0.701716,-0.632718,-0.649967,-0.580969,-0.598218,-0.580969,-0.580969,-0.615468,-0.632718,-0.615468,-0.667217,-0.701716,-0.667217,-0.684467,-0.649967,-0.598218,-0.598218,-0.546469,-0.529220,-0.529220,-0.563719,-0.546469,-0.598218,-0.667217,-0.649967,-0.649967,-0.667217,-0.667217,-0.632718,-0.529220,-0.598218,-0.632718,-0.684467,-0.615468,-0.632718,-0.632718,-0.632718,-0.667217,-0.615468,-0.563719,-0.563719,-0.529220,-0.511970,-0.529220,-0.511970,-0.546469,-0.632718,-0.598218,-0.632718,-0.615468,-0.580969,-0.563719,-0.511970,-0.494720,-0.511970,-0.494720,-0.511970,-0.546469,-0.546469,-0.546469,-0.632718,-0.580969,-0.442971,-0.373973,-0.270475,-0.166977,-0.166977,-0.132477,-0.166977,-0.115228,-0.201476,-0.201476,-0.201476,-0.028979,-0.011730,0.057269,0.091768,0.057269,0.109018,0.091768,0.005520,-0.011730,-0.080728,-0.166977,-0.235975,-0.218726,-0.201476,-0.166977,-0.201476,-0.253225,-0.304974,-0.408472,-0.494720,-0.529220,-0.563719,-0.580969,-0.615468,-0.701716,-0.667217,-0.667217,-0.667217,-0.546469,-0.649967,-0.632718,-0.632718,-0.649967,-0.718966,-0.718966,-0.736216,-0.753465,-0.684467,-0.718966,-0.667217,-0.615468,-0.580969,-0.580969,-0.615468,-0.598218,-0.667217,-0.718966,-0.684467,-0.598218,-0.442971,-0.184226,0.091768,0.540259,0.954251,1.506240,2.075479,2.558470,2.782715,2.713717,2.299725,1.540740,0.678257,-0.304974,-1.305454,-2.202437,-2.926923,-3.375414,-3.392663,-3.116669,-2.719927,-2.305935,-1.909193,-1.615948,-1.339954,-1.115708,-0.822464,-0.563719,-0.373973,-0.287724,-0.304974,-0.322224,-0.373973,-0.391222,-0.442971,-0.460221,-0.391222,-0.253225,-0.235975,-0.201476,-0.235975,-0.201476,-0.218726,-0.253225,-0.184226,-0.235975,-0.235975,-0.270475,-0.149727,-0.115228,-0.115228,-0.046229,-0.028979,-0.028979,0.005520,-0.046229,-0.011730,-0.080728,-0.028979,-0.028979,-0.011730,0.057269,0.074519,0.160767,0.195266,0.195266,0.178017,0.160767,0.178017,0.178017,0.195266,0.126268,0.178017,0.247015,0.316014,0.402262,0.333263,0.385012,0.419512,0.454011,0.436761,0.523010,0.505760,0.557509,0.643757,0.712756,0.747255,0.850753,0.902502,0.937002,1.006000,1.057749,1.023250,1.126748,1.126748,1.161247,1.316494,1.368243,1.523490,1.626988,1.626988,1.678737,1.730486,1.730486,1.816734,1.799485,1.816734,1.851234,1.920232,1.989231,2.006481,2.075479,2.092729,2.092729,2.075479,2.058230,2.006481,2.006481,1.885733,1.868483,1.764985,1.764985,1.713236,1.644238,1.523490,1.437242,1.299245,1.195747,1.057749,0.937002,0.816254,0.730006,0.643757,0.574759,0.505760,0.436761,0.385012,0.298764,0.143517,0.091768,0.005520,-0.063479,-0.046229,-0.149727,-0.115228,1.000000,117.000000
2.884956,-0.542298,-0.523772,-0.542298,-0.579349,-0.579349,-0.634926,-0.597875,-0.579349,-0.542298,-0.542298,-0.505246,-0.523772,-0.542298,-0.523772,-0.579349,-0.616401,-0.653452,-0.653452,-0.653452,-0.634926,-0.560823,-0.560823,-0.505246,-0.523772,-0.560823,-0.616401,-0.653452,-0.709029,-0.746080,-0.671978,-0.727555,-0.616401,-0.597875,-0.579349,-0.505246,-0.523772,-0.560823,-0.542298,-0.597875,-0.597875,-0.579349,-0.616401,-0.597875,-0.579349,-0.542298,-0.523772,-0.523772,-0.505246,-0.560823,-0.523772,-0.523772,-0.560823,-0.597875,-0.616401,-0.579349,-0.560823,-0.542298,-0.505246,-0.486721,-0.468195,-0.468195,-0.505246,-0.579349,-0.579349,-0.616401,-0.560823,-0.468195,-0.394092,-0.301464,-0.245887,-0.134732,-0.116207,-0.079155,-0.097681,-0.190309,-0.153258,-0.171784,-0.079155,-0.060630,-0.023578,0.069050,0.161679,0.217256,0.198730,0.143153,0.106102,0.031999,-0.079155,-0.116207,-0.153258,-0.116207,-0.171784,-0.171784,-0.245887,-0.227361,-0.357041,-0.394092,-0.523772,-0.542298,-0.616401,-0.634926,-0.634926,-0.653452,-0.616401,-0.616401,-0.597875,-0.542298,-0.560823,-0.616401,-0.616401,-0.634926,-0.671978,-0.746080,-0.709029,-0.709029,-0.709029,-0.671978,-0.671978,-0.616401,-0.653452,-0.634926,-0.653452,-0.690503,-0.671978,-0.671978,-0.653452,-0.616401,-0.523772,-0.486721,-0.301464,-0.023578,0.235782,0.661873,1.069438,1.569632,2.051300,2.514443,2.718225,2.551494,2.106877,1.291746,0.328410,-0.709029,-1.709417,-2.635702,-3.284101,-3.524935,-3.413781,-3.043267,-2.635702,-2.209611,-1.839097,-1.561211,-1.264800,-0.949863,-0.746080,-0.560823,-0.394092,-0.412618,-0.412618,-0.338515,-0.431144,-0.486721,-0.431144,-0.338515,-0.282938,-0.227361,-0.153258,-0.190309,-0.153258,-0.208835,-0.245887,-0.227361,-0.245887,-0.208835,-0.190309,-0.190309,-0.116207,-0.042104,-0.042104,-0.042104,-0.042104,-0.079155,-0.079155,-0.079155,-0.079155,-0.116207,-0.023578,-0.005052,0.013473,0.087576,0.087576,0.069050,0.087576,0.087576,0.069050,0.031999,0.087576,0.050525,0.087576,0.124627,0.180205,0.272833,0.143153,0.254307,0.272833,0.235782,0.254307,0.254307,0.272833,0.328410,0.421039,0.495141,0.624821,0.680398,0.698924,0.680398,0.735975,0.754501,0.791553,0.810078,0.847130,0.921232,0.976810,1.106489,1.162067,1.291746,1.384375,1.495529,1.439952,1.477003,1.532581,1.606683,1.606683,1.717837,1.773415,1.847517,1.958672,1.958672,1.995723,2.032774,2.051300,2.069826,2.014249,2.014249,2.032774,2.051300,1.977197,1.995723,1.958672,1.958672,1.921620,1.884569,1.754889,1.643735,1.495529,1.347324,1.217644,1.106489,1.032387,1.013861,0.847130,0.754501,0.717450,0.606296,0.495141,0.365462,0.217256,0.106102,0.013473,0.013473,-0.079155,-0.116207,-0.116207,1.000000,117.000000
3.001064,-0.492948,-0.510160,-0.492948,-0.475736,-0.579008,-0.561796,-0.613432,-0.613432,-0.613432,-0.596220,-0.596220,-0.510160,-0.441313,-0.441313,-0.492948,-0.475736,-0.475736,-0.510160,-0.561796,-0.647855,-0.647855,-0.544584,-0.579008,-0.544584,-0.475736,-0.492948,-0.510160,-0.441313,-0.475736,-0.492948,-0.544584,-0.544584,-0.561796,-0.561796,-0.561796,-0.544584,-0.527372,-0.441313,-0.458525,-0.527372,-0.544584,-0.527372,-0.596220,-0.613432,-0.579008,-0.579008,-0.475736,-0.475736,-0.458525,-0.475736,-0.475736,-0.510160,-0.510160,-0.475736,-0.510160,-0.527372,-0.579008,-0.510160,-0.492948,-0.458525,-0.406889,-0.424101,-0.372465,-0.372465,-0.389677,-0.441313,-0.441313,-0.424101,-0.389677,-0.320830,-0.286406,-0.200346,-0.183134,-0.183134,-0.165923,-0.200346,-0.165923,-0.097075,-0.079863,-0.045439,-0.011016,-0.011016,0.092256,0.161103,0.178315,0.229951,0.212739,0.178315,0.109468,0.023408,-0.062651,-0.097075,-0.148711,-0.114287,-0.079863,-0.131499,-0.148711,-0.234770,-0.303618,-0.355253,-0.458525,-0.458525,-0.475736,-0.475736,-0.544584,-0.561796,-0.579008,-0.492948,-0.492948,-0.527372,-0.510160,-0.527372,-0.596220,-0.596220,-0.630643,-0.647855,-0.647855,-0.647855,-0.596220,-0.579008,-0.561796,-0.492948,-0.475736,-0.458525,-0.561796,-0.510160,-0.561796,-0.561796,-0.510160,-0.372465,-0.131499,0.143891,0.539765,0.935638,1.417571,1.847868,2.260953,2.433072,2.312589,1.847868,0.195527,-0.768338,-1.732204,-2.523951,-3.178002,-3.556664,-3.625511,-3.401757,-3.057519,-2.661646,-2.334620,-2.042018,-1.801052,-1.508449,-1.215847,-0.974881,-0.699491,-0.510160,-0.389677,-0.424101,-0.406889,-0.441313,-0.458525,-0.458525,-0.406889,-0.406889,-0.355253,-0.303618,-0.234770,-0.165923,-0.183134,-0.217558,-0.217558,-0.200346,-0.251982,-0.165923,-0.200346,-0.183134,-0.131499,-0.062651,-0.028227,0.006196,0.006196,-0.079863,-0.062651,-0.114287,-0.114287,-0.079863,-0.079863,-0.011016,-0.011016,0.075044,0.057832,0.109468,0.092256,0.006196,0.023408,0.023408,0.057832,0.057832,0.126679,0.178315,0.264375,0.212739,0.281586,0.298798,0.316010,0.298798,0.264375,0.281586,0.350434,0.350434,0.436493,0.470917,0.505341,0.608612,0.729095,0.780731,0.763519,0.815155,0.866790,0.884002,0.901214,0.987274,1.056121,1.159392,1.245452,1.314299,1.383147,1.469206,1.520842,1.520842,1.520842,1.572478,1.624113,1.658537,1.710173,1.779020,1.865080,1.985563,2.019987,2.019987,2.088834,2.037199,2.037199,2.019987,1.916715,1.985563,1.933927,1.985563,1.968351,1.951139,1.899503,1.813444,1.727385,1.624113,1.520842,1.348723,1.193816,1.073333,0.952850,0.884002,0.797943,0.746307,0.677460,0.556977,0.488129,0.384858,0.333222,0.247163,0.143891,0.092256,0.040620,0.023408,0.000000,117.000000
2.673995,-0.776197,-0.723388,-0.705785,-0.670579,-0.688182,-0.688182,-0.688182,-0.740991,-0.740991,-0.723388,-0.776197,-0.740991,-0.705785,-0.688182,-0.670579,-0.635373,-0.652976,-0.652976,-0.740991,-0.723388,-0.740991,-0.758594,-0.758594,-0.758594,-0.705785,-0.670579,-0.670579,-0.670579,-0.600167,-0.582564,-0.617770,-0.635373,-0.670579,-0.705785,-0.705785,-0.688182,-0.740991,-0.705785,-0.670579,-0.688182,-0.652976,-0.652976,-0.635373,-0.652976,-0.723388,-0.705785,-0.705785,-0.670579,-0.670579,-0.670579,-0.600167,-0.600167,-0.600167,-0.600167,-0.635373,-0.617770,-0.705785,-0.688182,-0.670579,-0.652976,-0.652976,-0.600167,-0.582564,-0.529755,-0.547358,-0.564961,-0.564961,-0.529755,-0.476946,-0.512152,-0.406534,-0.406534,-0.300916,-0.248107,-0.265710,-0.195298,-0.177694,-0.142488,-0.160091,-0.072076,-0.107282,-0.072076,-0.054473,-0.036870,-0.036870,-0.036870,-0.089679,-0.177694,-0.142488,-0.177694,-0.195298,-0.248107,-0.300916,-0.300916,-0.406534,-0.494549,-0.512152,-0.529755,-0.582564,-0.564961,-0.582564,-0.564961,-0.547358,-0.635373,-0.688182,-0.758594,-0.740991,-0.740991,-0.688182,-0.688182,-0.688182,-0.705785,-0.705785,-0.617770,-0.670579,-0.705785,-0.723388,-0.723388,-0.740991,-0.723388,-0.652976,-0.652976,-0.617770,-0.582564,-0.600167,-0.564961,-0.582564,-0.617770,-0.512152,-0.353725,-0.124885,0.209572,0.649647,1.142532,1.741035,2.145904,2.550774,2.603583,2.462758,1.952271,1.177738,0.209572,-0.776197,-1.709157,-2.518896,-3.029384,-3.170208,-3.011781,-2.606911,-2.166836,-1.779569,-1.427509,-1.216273,-1.005036,-0.793800,-0.547358,-0.512152,-0.388931,-0.265710,-0.265710,-0.283313,-0.336122,-0.388931,-0.336122,-0.300916,-0.336122,-0.265710,-0.230504,-0.212901,-0.177694,-0.160091,-0.124885,-0.124885,-0.089679,-0.089679,-0.124885,-0.160091,-0.160091,-0.160091,-0.212901,-0.107282,-0.089679,-0.001664,0.033542,0.068748,0.051145,0.068748,-0.019267,-0.019267,-0.072076,-0.001664,-0.001664,0.051145,0.086351,0.121557,0.139160,0.191969,0.191969,0.174366,0.174366,0.191969,0.086351,0.191969,0.227175,0.262381,0.332793,0.385602,0.403205,0.456014,0.438411,0.438411,0.403205,0.420808,0.508823,0.561632,0.596838,0.632044,0.737663,0.790472,0.860884,0.878487,0.931296,0.984105,1.001708,1.036914,1.072120,1.124929,1.142532,1.230547,1.353768,1.424180,1.512195,1.600210,1.617814,1.617814,1.670623,1.635417,1.758638,1.793844,1.793844,1.917065,1.987477,1.969874,2.057889,2.057889,2.145904,2.110698,2.093095,2.075492,2.022683,2.022683,1.987477,2.005080,1.934668,1.917065,1.864256,1.776241,1.617814,1.512195,1.353768,1.265753,1.160135,1.107326,1.001708,0.896090,0.843281,0.737663,0.720060,0.632044,0.544029,0.385602,0.262381,0.191969,0.121557,1.000000,117.000000
3.077221,-0.486454,-0.564777,-0.545196,-0.564777,-0.643099,-0.662680,-0.584357,-0.525615,-0.603938,-0.545196,-0.506035,-0.486454,-0.486454,-0.545196,-0.564777,-0.643099,-0.643099,-0.682260,-0.643099,-0.584357,-0.603938,-0.564777,-0.564777,-0.525615,-0.564777,-0.545196,-0.545196,-0.564777,-0.603938,-0.603938,-0.525615,-0.506035,-0.545196,-0.486454,-0.506035,-0.486454,-0.447293,-0.486454,-0.564777,-0.545196,-0.623519,-0.643099,-0.623519,-0.584357,-0.506035,-0.466874,-0.447293,-0.427712,-0.408132,-0.427712,-0.447293,-0.545196,-0.584357,-0.545196,-0.525615,-0.525615,-0.525615,-0.506035,-0.427712,-0.427712,-0.427712,-0.447293,-0.447293,-0.466874,-0.447293,-0.388551,-0.388551,-0.310228,-0.251487,-0.173164,-0.173164,-0.094841,-0.173164,-0.134003,-0.134003,-0.134003,-0.094841,-0.036100,0.003062,0.120546,0.218449,0.218449,0.296771,0.335932,0.296771,0.159707,0.140126,0.003062,-0.134003,-0.114422,-0.134003,-0.094841,-0.094841,-0.134003,-0.134003,-0.192745,-0.271067,-0.427712,-0.486454,-0.506035,-0.545196,-0.545196,-0.545196,-0.506035,-0.564777,-0.525615,-0.525615,-0.584357,-0.643099,-0.701841,-0.701841,-0.819325,-0.760583,-0.780164,-0.741002,-0.662680,-0.721422,-0.603938,-0.545196,-0.603938,-0.682260,-0.643099,-0.643099,-0.741002,-0.701841,-0.682260,-0.682260,-0.545196,-0.447293,-0.290648,-0.016519,0.316352,0.707965,1.138738,1.686996,2.176512,2.509383,2.646447,2.372318,1.863222,1.001674,0.061804,-0.878067,-1.935421,-2.777388,-3.462710,-3.619356,-3.560614,-3.188582,-2.757808,-2.327034,-1.837518,-1.445905,-1.210938,-0.897647,-0.682260,-0.447293,-0.408132,-0.349390,-0.349390,-0.388551,-0.447293,-0.506035,-0.466874,-0.368970,-0.251487,-0.212325,-0.192745,-0.231906,-0.192745,-0.153583,-0.231906,-0.192745,-0.251487,-0.212325,-0.212325,-0.153583,-0.173164,-0.114422,-0.075261,-0.134003,-0.114422,-0.134003,-0.153583,-0.173164,-0.134003,-0.075261,-0.016519,0.003062,0.061804,0.042223,0.081384,0.081384,0.061804,0.081384,-0.036100,-0.016519,-0.036100,-0.036100,0.081384,0.140126,0.120546,0.218449,0.198868,0.238029,0.257610,0.238029,0.218449,0.218449,0.238029,0.198868,0.316352,0.394674,0.433836,0.531739,0.590481,0.590481,0.629642,0.629642,0.688384,0.668803,0.727545,0.825448,0.884190,0.942932,1.021255,1.177900,1.217061,1.275803,1.412867,1.412867,1.491190,1.393287,1.530351,1.608674,1.647835,1.726157,1.921964,2.039448,2.078609,2.117770,2.098190,2.059028,2.059028,2.019867,2.059028,2.059028,2.078609,2.059028,2.019867,2.059028,2.039448,1.941544,1.824061,1.726157,1.549932,1.491190,1.295384,1.158319,1.079997,1.001674,0.845029,0.727545,0.649223,0.531739,0.375094,0.277191,0.120546,0.081384,-0.016519,-0.094841,-0.114422,-0.134003,-0.094841,1.000000,117.000000
2.920987,-0.626714,-0.609575,-0.592436,-0.592436,-0.558159,-0.575298,-0.575298,-0.541020,-0.558159,-0.626714,-0.660991,-0.643852,-0.609575,-0.643852,-0.643852,-0.609575,-0.575298,-0.541020,-0.489604,-0.506743,-0.523882,-0.626714,-0.712407,-0.660991,-0.660991,-0.643852,-0.592436,-0.609575,-0.541020,-0.506743,-0.523882,-0.558159,-0.523882,-0.575298,-0.592436,-0.558159,-0.609575,-0.575298,-0.592436,-0.575298,-0.592436,-0.506743,-0.541020,-0.541020,-0.489604,-0.523882,-0.541020,-0.541020,-0.592436,-0.609575,-0.558159,-0.575298,-0.523882,-0.472466,-0.489604,-0.455327,-0.541020,-0.523882,-0.523882,-0.575298,-0.609575,-0.558159,-0.523882,-0.472466,-0.403911,-0.403911,-0.386773,-0.403911,-0.301079,-0.249663,-0.249663,-0.266802,-0.301079,-0.301079,-0.283941,-0.215386,-0.146831,-0.061138,-0.026861,0.075971,0.041694,0.041694,0.024555,0.041694,-0.009722,-0.044000,-0.061138,-0.044000,-0.026861,-0.044000,-0.078277,-0.078277,-0.146831,-0.266802,-0.369634,-0.523882,-0.541020,-0.558159,-0.643852,-0.592436,-0.541020,-0.558159,-0.523882,-0.541020,-0.558159,-0.609575,-0.643852,-0.660991,-0.712407,-0.712407,-0.729546,-0.729546,-0.660991,-0.609575,-0.609575,-0.558159,-0.575298,-0.609575,-0.609575,-0.609575,-0.643852,-0.643852,-0.626714,-0.592436,-0.558159,-0.506743,-0.455327,-0.489604,-0.421050,-0.369634,-0.112554,0.178803,0.487299,0.864349,1.395647,1.892668,2.303995,2.475382,2.252579,1.687004,0.864349,-0.112554,-1.140873,-2.066360,-2.906154,-3.454591,-3.660254,-3.506007,-3.111818,-2.631936,-2.237747,-1.929251,-1.672171,-1.500785,-1.295121,-1.072319,-0.832377,-0.643852,-0.472466,-0.369634,-0.318218,-0.283941,-0.301079,-0.301079,-0.318218,-0.283941,-0.318218,-0.266802,-0.283941,-0.266802,-0.198247,-0.129693,-0.112554,-0.061138,-0.112554,-0.078277,-0.078277,-0.095416,-0.112554,-0.095416,-0.129693,-0.078277,-0.061138,-0.009722,0.024555,0.110248,0.093110,0.127387,0.075971,0.058832,-0.044000,-0.026861,0.024555,0.024555,0.075971,0.127387,0.195941,0.161664,0.178803,0.213080,0.264496,0.247357,0.264496,0.264496,0.230219,0.281635,0.367328,0.384467,0.470160,0.504437,0.521576,0.521576,0.572992,0.538714,0.555853,0.641546,0.692962,0.710101,0.795794,0.847210,0.915765,1.018597,1.070013,1.138567,1.224260,1.258538,1.224260,1.292815,1.275676,1.361370,1.481340,1.549895,1.584172,1.669865,1.635588,1.704143,1.669865,1.772697,1.806974,1.824113,1.875529,1.858390,1.909806,1.909806,1.909806,1.944084,1.961222,1.892668,1.875529,1.824113,1.875529,1.772697,1.755559,1.721281,1.669865,1.652727,1.618449,1.584172,1.498479,1.344231,1.207122,1.035735,0.984319,0.881487,0.795794,0.675824,0.590130,0.572992,0.521576,0.435883,0.333051,0.264496,0.178803,0.093110,0.000000,117.000000
2.911298,-0.658774,-0.695204,-0.713418,-0.713418,-0.695204,-0.676989,-0.658774,-0.622345,-0.604130,-0.622345,-0.676989,-0.658774,-0.695204,-0.731633,-0.731633,-0.713418,-0.713418,-0.676989,-0.604130,-0.585916,-0.531272,-0.531272,-0.549486,-0.585916,-0.604130,-0.658774,-0.640560,-0.695204,-0.658774,-0.658774,-0.676989,-0.622345,-0.658774,-0.585916,-0.585916,-0.549486,-0.640560,-0.640560,-0.658774,-0.640560,-0.676989,-0.640560,-0.585916,-0.567701,-0.567701,-0.549486,-0.567701,-0.585916,-0.604130,-0.585916,-0.622345,-0.731633,-0.676989,-0.585916,-0.567701,-0.531272,-0.513057,-0.531272,-0.476628,-0.531272,-0.604130,-0.585916,-0.604130,-0.640560,-0.567701,-0.549486,-0.494843,-0.440199,-0.367340,-0.312696,-0.258052,-0.221623,-0.221623,-0.185193,-0.221623,-0.239837,-0.258052,-0.185193,-0.166979,-0.003047,0.069812,0.106241,0.069812,0.033382,0.069812,0.015168,0.015168,-0.094120,-0.148764,-0.112335,-0.094120,-0.148764,-0.130549,-0.185193,-0.203408,-0.239837,-0.330911,-0.421984,-0.494843,-0.604130,-0.604130,-0.622345,-0.622345,-0.622345,-0.549486,-0.585916,-0.531272,-0.567701,-0.604130,-0.695204,-0.768062,-0.749848,-0.768062,-0.768062,-0.768062,-0.695204,-0.658774,-0.695204,-0.604130,-0.604130,-0.640560,-0.658774,-0.676989,-0.640560,-0.604130,-0.549486,-0.567701,-0.549486,-0.476628,-0.330911,-0.258052,-0.021261,0.270173,0.743754,1.217335,1.763775,2.310214,2.583434,2.583434,2.164497,1.454126,0.561608,-0.458413,-1.460219,-2.389167,-3.081324,-3.336329,-3.263470,-2.917392,-2.462025,-1.988444,-1.605936,-1.278073,-1.004853,-0.786277,-0.567701,-0.458413,-0.403769,-0.367340,-0.440199,-0.421984,-0.403769,-0.403769,-0.385555,-0.312696,-0.276267,-0.239837,-0.258052,-0.239837,-0.294481,-0.312696,-0.294481,-0.276267,-0.239837,-0.203408,-0.185193,-0.094120,-0.130549,-0.166979,-0.185193,-0.130549,-0.148764,-0.148764,-0.148764,-0.203408,-0.112335,-0.075905,-0.039476,-0.021261,-0.039476,0.015168,-0.021261,-0.003047,0.033382,-0.003047,0.033382,-0.003047,0.088026,0.106241,0.142670,0.215529,0.215529,0.197314,0.160885,0.215529,0.233744,0.233744,0.233744,0.270173,0.397676,0.415890,0.452320,0.506964,0.598037,0.652681,0.670895,0.670895,0.689110,0.743754,0.780183,0.798398,0.925901,1.053403,1.144476,1.199120,1.217335,1.235550,1.290194,1.399482,1.435911,1.454126,1.508770,1.599843,1.636272,1.745560,1.800204,1.927707,1.982351,2.036995,2.055209,2.055209,2.018780,2.073424,2.073424,2.073424,2.109853,2.164497,2.146283,2.182712,2.128068,2.109853,2.055209,1.982351,1.800204,1.745560,1.599843,1.490555,1.435911,1.290194,1.253764,1.199120,1.089833,0.907686,0.816613,0.652681,0.452320,0.452320,0.324817,0.179100,0.142670,0.124456,0.069812,0.051597,-0.003047,1.000000,117.000000
2.826924,-0.553408,-0.553408,-0.535332,-0.517255,-0.553408,-0.571485,-0.643792,-0.679945,-0.679945,-0.571485,-0.571485,-0.553408,-0.499178,-0.481102,-0.499178,-0.535332,-0.589562,-0.625715,-0.535332,-0.589562,-0.625715,-0.571485,-0.553408,-0.499178,-0.444948,-0.517255,-0.571485,-0.517255,-0.535332,-0.571485,-0.571485,-0.643792,-0.661868,-0.607638,-0.517255,-0.535332,-0.481102,-0.499178,-0.535332,-0.517255,-0.589562,-0.553408,-0.553408,-0.607638,-0.607638,-0.589562,-0.553408,-0.463025,-0.463025,-0.481102,-0.499178,-0.481102,-0.535332,-0.517255,-0.553408,-0.553408,-0.589562,-0.571485,-0.517255,-0.499178,-0.444948,-0.463025,-0.535332,-0.463025,-0.499178,-0.553408,-0.517255,-0.463025,-0.444948,-0.354565,-0.300335,-0.191875,-0.137645,-0.137645,-0.101492,-0.155722,-0.137645,-0.119569,-0.101492,-0.011109,0.061198,0.079274,0.097351,0.097351,0.097351,0.151581,0.097351,0.043121,-0.029186,-0.083416,-0.173799,-0.228029,-0.209952,-0.246105,-0.300335,-0.318412,-0.408795,-0.426872,-0.408795,-0.481102,-0.517255,-0.553408,-0.643792,-0.661868,-0.607638,-0.625715,-0.625715,-0.571485,-0.643792,-0.679945,-0.679945,-0.625715,-0.679945,-0.698021,-0.716098,-0.734175,-0.752251,-0.698021,-0.661868,-0.661868,-0.589562,-0.517255,-0.499178,-0.517255,-0.517255,-0.589562,-0.625715,-0.571485,-0.535332,-0.390718,-0.101492,0.169658,0.549267,1.019260,1.543483,1.977322,2.356932,2.393085,2.085782,1.435023,0.513114,-0.517255,-1.529547,-2.523763,-3.192598,-3.536055,-3.499901,-3.210675,-2.758759,-2.342996,-1.945310,-1.619930,-1.258397,-1.023401,-0.734175,-0.571485,-0.444948,-0.408795,-0.408795,-0.444948,-0.481102,-0.499178,-0.517255,-0.463025,-0.444948,-0.354565,-0.300335,-0.264182,-0.191875,-0.155722,-0.228029,-0.173799,-0.228029,-0.173799,-0.209952,-0.173799,-0.209952,-0.173799,-0.137645,-0.137645,-0.137645,-0.065339,-0.065339,-0.065339,-0.029186,-0.083416,-0.065339,-0.119569,-0.065339,-0.065339,-0.047262,0.006968,0.043121,0.061198,0.043121,0.043121,0.025044,0.025044,0.043121,0.025044,0.061198,0.079274,0.169658,0.241964,0.260041,0.386577,0.368501,0.368501,0.386577,0.368501,0.404654,0.404654,0.495037,0.549267,0.621574,0.748110,0.802340,0.820417,0.928877,0.983107,0.983107,1.019260,1.055413,1.145796,1.218103,1.272333,1.380793,1.453099,1.543483,1.615789,1.688096,1.706172,1.760402,1.778479,1.778479,1.796556,1.832709,1.977322,1.977322,2.031552,2.121935,2.176165,2.212318,2.158089,2.176165,2.103859,2.121935,1.995399,1.959245,1.977322,1.886939,1.850786,1.814632,1.724249,1.670019,1.525406,1.435023,1.308486,1.163873,1.001183,0.946953,0.820417,0.657727,0.585420,0.531190,0.404654,0.368501,0.260041,0.169658,0.115428,0.043121,-0.137645,-0.083416,-0.101492,1.000000,117.000000
2.578171,-0.713091,-0.782747,-0.800161,-0.747919,-0.730505,-0.730505,-0.678263,-0.591192,-0.591192,-0.608607,-0.643435,-0.660849,-0.678263,-0.834990,-0.782747,-0.747919,-0.782747,-0.730505,-0.730505,-0.765333,-0.695677,-0.678263,-0.695677,-0.713091,-0.678263,-0.765333,-0.765333,-0.765333,-0.765333,-0.713091,-0.678263,-0.643435,-0.626021,-0.626021,-0.643435,-0.660849,-0.678263,-0.713091,-0.730505,-0.713091,-0.713091,-0.695677,-0.660849,-0.608607,-0.608607,-0.591192,-0.626021,-0.660849,-0.713091,-0.713091,-0.730505,-0.730505,-0.695677,-0.643435,-0.626021,-0.608607,-0.626021,-0.591192,-0.591192,-0.573778,-0.643435,-0.626021,-0.626021,-0.591192,-0.573778,-0.538950,-0.451880,-0.364809,-0.347395,-0.312567,-0.295153,-0.329981,-0.347395,-0.312567,-0.312567,-0.225497,-0.138426,-0.051356,0.000887,0.053129,0.070543,0.070543,0.035715,0.035715,-0.051356,-0.086184,-0.208083,-0.225497,-0.208083,-0.208083,-0.225497,-0.242911,-0.347395,-0.364809,-0.469294,-0.504122,-0.538950,-0.573778,-0.556364,-0.660849,-0.643435,-0.591192,-0.591192,-0.556364,-0.504122,-0.556364,-0.608607,-0.643435,-0.660849,-0.747919,-0.713091,-0.695677,-0.643435,-0.678263,-0.573778,-0.573778,-0.538950,-0.573778,-0.556364,-0.591192,-0.643435,-0.643435,-0.660849,-0.626021,-0.608607,-0.573778,-0.504122,-0.434466,-0.382223,-0.208083,-0.033942,0.314340,0.627794,1.045732,1.533326,2.038335,2.473687,2.578171,2.438859,1.968678,1.202459,0.279512,-0.834990,-1.705694,-2.558984,-3.133649,-3.325204,-3.168477,-2.889852,-2.419672,-2.001733,-1.705694,-1.444483,-1.218100,-1.009130,-0.765333,-0.591192,-0.469294,-0.399637,-0.260325,-0.312567,-0.295153,-0.312567,-0.242911,-0.190668,-0.190668,-0.086184,-0.138426,-0.121012,-0.138426,-0.173254,-0.155840,-0.173254,-0.121012,-0.086184,-0.033942,0.000887,0.035715,0.000887,0.018301,0.000887,-0.033942,-0.033942,-0.033942,0.018301,0.070543,0.087957,0.157613,0.175027,0.175027,0.087957,0.140199,0.105371,0.087957,0.122785,0.140199,0.175027,0.209856,0.296926,0.279512,0.383996,0.401411,0.418825,0.366582,0.418825,0.401411,0.418825,0.471067,0.488481,0.558137,0.575551,0.627794,0.697450,0.714864,0.767106,0.767106,0.801935,0.854177,0.889005,0.923833,0.958661,1.080560,1.167630,1.272115,1.359185,1.394013,1.463670,1.498498,1.533326,1.585568,1.655225,1.690053,1.724881,1.864194,1.916436,2.003507,2.038335,2.020921,2.038335,2.038335,2.003507,2.003507,2.020921,1.968678,1.968678,1.951264,1.933850,1.899022,1.916436,1.881608,1.794537,1.707467,1.568154,1.498498,1.359185,1.254701,1.167630,1.080560,0.993489,0.958661,0.871591,0.801935,0.697450,0.575551,0.488481,0.401411,0.296926,0.262098,0.192441,0.175027,0.122785,0.157613,0.122785,0.105371,1.000000,117.000000
2.675996,-0.627894,-0.609014,-0.627894,-0.627894,-0.722290,-0.760049,-0.722290,-0.741170,-0.684532,-0.684532,-0.609014,-0.533497,-0.571255,-0.552376,-0.609014,-0.627894,-0.646773,-0.646773,-0.646773,-0.646773,-0.609014,-0.609014,-0.646773,-0.552376,-0.533497,-0.571255,-0.552376,-0.590135,-0.646773,-0.665652,-0.665652,-0.684532,-0.627894,-0.571255,-0.627894,-0.514617,-0.533497,-0.552376,-0.665652,-0.627894,-0.609014,-0.703411,-0.703411,-0.684532,-0.552376,-0.571255,-0.533497,-0.514617,-0.514617,-0.514617,-0.571255,-0.627894,-0.703411,-0.684532,-0.703411,-0.684532,-0.552376,-0.533497,-0.514617,-0.495738,-0.476859,-0.552376,-0.514617,-0.514617,-0.552376,-0.533497,-0.476859,-0.420220,-0.363582,-0.325824,-0.250306,-0.212547,-0.212547,-0.118151,-0.155909,-0.080392,-0.099271,-0.099271,0.032884,0.089523,0.089523,0.127281,0.165040,0.165040,0.146161,0.070643,0.051764,-0.042633,-0.118151,-0.193668,-0.193668,-0.212547,-0.212547,-0.306944,-0.325824,-0.325824,-0.382462,-0.420220,-0.495738,-0.552376,-0.571255,-0.722290,-0.665652,-0.609014,-0.609014,-0.552376,-0.590135,-0.571255,-0.684532,-0.646773,-0.684532,-0.684532,-0.703411,-0.778928,-0.741170,-0.722290,-0.684532,-0.646773,-0.627894,-0.609014,-0.627894,-0.646773,-0.627894,-0.609014,-0.627894,-0.609014,-0.590135,-0.514617,-0.420220,-0.288065,-0.042633,0.278316,0.674783,1.127888,1.656510,2.109615,2.487203,2.619358,2.411685,1.864183,1.014612,0.014005,-0.967722,-1.892811,-2.723504,-3.195488,-3.459799,-3.271005,-2.893418,-2.383675,-1.987208,-1.647380,-1.345310,-1.118757,-0.892205,-0.590135,-0.439100,-0.325824,-0.344703,-0.401341,-0.363582,-0.476859,-0.457979,-0.420220,-0.401341,-0.231427,-0.193668,-0.155909,-0.174789,-0.193668,-0.155909,-0.174789,-0.212547,-0.250306,-0.212547,-0.174789,-0.118151,-0.099271,-0.042633,0.014005,0.014005,0.014005,-0.023754,-0.023754,-0.023754,-0.061512,-0.023754,0.014005,0.051764,0.127281,0.108402,0.183919,0.183919,0.221678,0.183919,0.070643,0.127281,0.051764,0.089523,0.070643,0.202799,0.240558,0.278316,0.372713,0.353834,0.391592,0.448231,0.448231,0.467110,0.467110,0.523748,0.580386,0.655904,0.712542,0.806939,0.806939,0.939094,0.939094,0.957974,1.033491,1.052370,1.071250,1.146767,1.222285,1.392199,1.448837,1.543234,1.599872,1.675390,1.807545,1.788666,1.845304,1.883063,1.864183,1.920821,1.977460,2.071856,2.071856,2.128495,2.166253,2.185133,2.147374,2.166253,2.071856,2.015218,2.015218,1.958580,1.920821,1.883063,1.826425,1.713148,1.618752,1.505475,1.411078,1.260043,1.109009,1.033491,0.844697,0.769180,0.618145,0.580386,0.504869,0.429351,0.353834,0.259437,0.127281,0.070643,0.014005,-0.080392,-0.174789,-0.231427,-0.212547,-0.250306,-0.250306,1.000000,117.000000
2.944964,-0.472343,-0.472343,-0.545834,-0.490716,-0.509089,-0.472343,-0.453971,-0.453971,-0.417225,-0.380480,-0.343735,-0.417225,-0.453971,-0.472343,-0.509089,-0.527461,-0.509089,-0.509089,-0.490716,-0.472343,-0.490716,-0.435598,-0.472343,-0.417225,-0.417225,-0.453971,-0.435598,-0.527461,-0.564206,-0.582579,-0.509089,-0.435598,-0.362108,-0.362108,-0.398853,-0.398853,-0.472343,-0.417225,-0.472343,-0.509089,-0.490716,-0.545834,-0.545834,-0.509089,-0.398853,-0.380480,-0.398853,-0.380480,-0.417225,-0.435598,-0.490716,-0.472343,-0.527461,-0.490716,-0.472343,-0.417225,-0.453971,-0.380480,-0.343735,-0.362108,-0.435598,-0.490716,-0.527461,-0.527461,-0.509089,-0.453971,-0.398853,-0.288617,-0.233499,-0.178381,-0.141636,-0.086518,-0.068146,-0.104891,-0.160009,-0.086518,-0.049773,-0.013028,0.042090,0.170698,0.262561,0.262561,0.189071,0.244189,0.170698,0.097208,0.023717,-0.031400,-0.123264,-0.104891,-0.068146,-0.104891,-0.123264,-0.068146,-0.196754,-0.288617,-0.362108,-0.435598,-0.509089,-0.545834,-0.545834,-0.527461,-0.527461,-0.509089,-0.490716,-0.490716,-0.472343,-0.527461,-0.564206,-0.656069,-0.637697,-0.656069,-0.656069,-0.656069,-0.656069,-0.600952,-0.582579,-0.600952,-0.600952,-0.564206,-0.545834,-0.564206,-0.619324,-0.582579,-0.582579,-0.564206,-0.490716,-0.472343,-0.398853,-0.270244,-0.068146,0.225816,0.501405,0.868858,1.328173,1.824234,2.154941,2.375412,2.338667,1.952842,1.309801,0.372797,-0.600952,-1.519582,-2.383095,-3.118000,-3.577316,-3.742669,-3.614061,-3.154745,-2.677057,-2.291232,-1.997271,-1.684936,-1.427719,-1.188875,-0.913286,-0.692815,-0.637697,-0.509089,-0.509089,-0.527461,-0.453971,-0.509089,-0.398853,-0.380480,-0.362108,-0.325362,-0.325362,-0.306990,-0.306990,-0.325362,-0.306990,-0.325362,-0.270244,-0.215127,-0.160009,-0.104891,-0.123264,-0.160009,-0.196754,-0.178381,-0.233499,-0.215127,-0.178381,-0.141636,-0.178381,-0.141636,-0.068146,-0.068146,-0.031400,0.005345,-0.013028,-0.049773,-0.031400,-0.013028,0.023717,0.023717,0.060463,0.060463,0.060463,0.078835,0.170698,0.207444,0.225816,0.152326,0.189071,0.225816,0.244189,0.262561,0.354424,0.391170,0.464660,0.593269,0.574896,0.593269,0.611641,0.721877,0.685132,0.758622,0.740249,0.868858,0.923976,0.960721,1.015839,1.199565,1.199565,1.309801,1.328173,1.401664,1.475154,1.511899,1.548645,1.695626,1.750743,1.805861,1.879352,2.007960,2.026333,2.118196,2.118196,2.044705,2.063078,2.044705,2.063078,1.989587,2.099823,2.099823,2.136568,2.099823,2.081451,1.952842,1.787489,1.750743,1.567017,1.438409,1.291428,1.162820,0.997466,0.960721,0.850485,0.813740,0.703504,0.574896,0.483033,0.391170,0.244189,0.115580,-0.013028,-0.013028,-0.068146,-0.123264,-0.104891,-0.086518,0.000000,117.000000
2.665119,-0.651770,-0.669603,-0.687436,-0.723101,-0.723101,-0.758767,-0.776600,-0.723101,-0.740934,-0.669603,-0.651770,-0.633938,-0.651770,-0.669603,-0.740934,-0.705269,-0.723101,-0.723101,-0.740934,-0.740934,-0.705269,-0.651770,-0.633938,-0.651770,-0.651770,-0.687436,-0.687436,-0.723101,-0.723101,-0.758767,-0.723101,-0.705269,-0.633938,-0.616105,-0.616105,-0.598272,-0.616105,-0.651770,-0.669603,-0.705269,-0.740934,-0.740934,-0.723101,-0.669603,-0.705269,-0.669603,-0.598272,-0.562607,-0.580439,-0.580439,-0.598272,-0.633938,-0.669603,-0.669603,-0.705269,-0.633938,-0.633938,-0.598272,-0.544774,-0.562607,-0.562607,-0.526941,-0.616105,-0.562607,-0.562607,-0.544774,-0.544774,-0.455610,-0.437778,-0.330781,-0.330781,-0.259450,-0.277283,-0.295116,-0.277283,-0.277283,-0.223785,-0.223785,-0.116788,-0.063290,0.043706,0.079372,0.168536,0.115037,0.132870,0.025874,-0.045457,-0.098955,-0.134621,-0.188119,-0.223785,-0.259450,-0.241617,-0.259450,-0.295116,-0.348614,-0.473443,-0.437778,-0.473443,-0.544774,-0.562607,-0.562607,-0.598272,-0.616105,-0.598272,-0.544774,-0.544774,-0.562607,-0.580439,-0.687436,-0.705269,-0.705269,-0.687436,-0.776600,-0.758767,-0.705269,-0.616105,-0.580439,-0.526941,-0.544774,-0.562607,-0.598272,-0.616105,-0.562607,-0.598272,-0.616105,-0.616105,-0.562607,-0.473443,-0.348614,-0.134621,0.115037,0.489525,0.881845,1.363329,1.933977,2.379795,2.593788,2.540290,2.201468,1.523824,0.667852,-0.312948,-1.240251,-2.078389,-2.827364,-3.184019,-3.219685,-2.916528,-2.542041,-2.114055,-1.721735,-1.436411,-1.133254,-0.954927,-0.794432,-0.544774,-0.402112,-0.348614,-0.419945,-0.402112,-0.437778,-0.437778,-0.402112,-0.295116,-0.295116,-0.205952,-0.170286,-0.205952,-0.223785,-0.170286,-0.170286,-0.205952,-0.205952,-0.223785,-0.188119,-0.170286,-0.116788,-0.027625,-0.027625,-0.027625,-0.045457,-0.027625,-0.098955,-0.063290,-0.081123,-0.081123,-0.045457,0.008041,0.043706,0.097205,0.079372,0.115037,0.150703,0.115037,0.043706,0.061539,0.115037,0.115037,0.132870,0.275532,0.311197,0.311197,0.293365,0.311197,0.346863,0.382528,0.346863,0.293365,0.346863,0.453859,0.560856,0.632187,0.685685,0.757016,0.792681,0.810514,0.846180,0.881845,0.917511,1.006674,0.988842,1.060172,1.185002,1.238500,1.327664,1.488158,1.452493,1.559489,1.595155,1.648653,1.630820,1.684318,1.719984,1.755649,1.916144,1.969642,2.076639,2.094471,2.130137,2.130137,2.147969,2.130137,2.094471,2.040973,2.058806,2.005308,2.040973,1.969642,2.005308,1.969642,1.844813,1.737817,1.702151,1.559489,1.470325,1.327664,1.185002,1.095838,0.971009,0.899678,0.828347,0.757016,0.650020,0.525190,0.453859,0.346863,0.222034,0.150703,0.061539,-0.063290,-0.045457,-0.063290,-0.045457,1.000000,117.000000
2.676179,-0.615301,-0.578525,-0.523360,-0.504972,-0.578525,-0.560137,-0.615301,-0.615301,-0.578525,-0.578525,-0.615301,-0.578525,-0.596913,-0.596913,-0.560137,-0.523360,-0.541749,-0.504972,-0.504972,-0.541749,-0.596913,-0.596913,-0.615301,-0.596913,-0.578525,-0.560137,-0.578525,-0.523360,-0.578525,-0.596913,-0.596913,-0.596913,-0.596913,-0.596913,-0.633689,-0.670466,-0.615301,-0.615301,-0.596913,-0.541749,-0.523360,-0.560137,-0.560137,-0.596913,-0.596913,-0.596913,-0.707242,-0.615301,-0.652077,-0.560137,-0.504972,-0.468196,-0.468196,-0.468196,-0.486584,-0.449808,-0.504972,-0.523360,-0.596913,-0.596913,-0.504972,-0.560137,-0.431420,-0.394643,-0.357867,-0.302702,-0.357867,-0.302702,-0.210762,-0.173985,-0.210762,-0.192374,-0.173985,-0.137209,-0.082045,0.046672,0.083449,0.157001,0.157001,0.157001,0.120225,0.083449,0.028284,-0.008492,-0.026880,-0.026880,-0.063656,-0.026880,-0.026880,-0.082045,-0.137209,-0.173985,-0.247538,-0.376255,-0.449808,-0.541749,-0.541749,-0.523360,-0.468196,-0.431420,-0.486584,-0.523360,-0.523360,-0.615301,-0.578525,-0.596913,-0.615301,-0.633689,-0.615301,-0.633689,-0.615301,-0.560137,-0.578525,-0.560137,-0.615301,-0.541749,-0.633689,-0.725630,-0.762406,-0.707242,-0.670466,-0.670466,-0.633689,-0.578525,-0.560137,-0.504972,-0.523360,-0.523360,-0.541749,-0.449808,-0.284314,-0.063656,0.304107,0.818975,1.297067,1.848712,2.326804,2.602626,2.565850,2.253251,1.591278,0.727034,-0.284314,-1.240498,-2.031189,-2.748327,-3.208031,-3.299972,-3.189643,-2.877044,-2.527669,-2.159906,-1.884084,-1.663426,-1.461156,-1.240498,-0.964676,-0.762406,-0.504972,-0.357867,-0.302702,-0.321091,-0.413031,-0.431420,-0.449808,-0.449808,-0.541749,-0.468196,-0.394643,-0.302702,-0.265926,-0.210762,-0.192374,-0.210762,-0.210762,-0.173985,-0.229150,-0.173985,-0.229150,-0.229150,-0.155597,-0.082045,-0.100433,-0.100433,-0.008492,-0.026880,-0.118821,-0.155597,-0.155597,-0.118821,-0.173985,-0.173985,-0.155597,-0.045268,0.009896,0.065061,0.083449,0.083449,0.120225,0.101837,0.046672,0.083449,0.083449,0.065061,0.138613,0.157001,0.193778,0.248942,0.304107,0.304107,0.340883,0.359271,0.322495,0.359271,0.359271,0.414436,0.432824,0.524765,0.616705,0.598317,0.690258,0.708646,0.800587,0.763811,0.837363,0.892528,0.929304,0.984468,1.131574,1.205126,1.241903,1.425784,1.499337,1.499337,1.499337,1.554501,1.609666,1.609666,1.701607,1.719995,1.811936,1.885488,1.922264,1.995817,1.995817,2.032593,2.050982,2.106146,2.050982,2.069370,2.032593,2.050982,2.069370,1.959041,2.032593,1.977429,1.940653,1.811936,1.719995,1.591278,1.499337,1.370620,1.260291,1.149962,1.039633,0.966080,0.892528,0.818975,0.690258,0.598317,0.451212,0.322495,0.248942,0.101837,1.000000,117.000000
2.595707,-0.647271,-0.681956,-0.647271,-0.716640,-0.612587,-0.612587,-0.612587,-0.525876,-0.543219,-0.560561,-0.577903,-0.612587,-0.629929,-0.681956,-0.664614,-0.699298,-0.699298,-0.577903,-0.577903,-0.560561,-0.560561,-0.525876,-0.612587,-0.595245,-0.629929,-0.595245,-0.699298,-0.647271,-0.629929,-0.595245,-0.595245,-0.577903,-0.560561,-0.525876,-0.577903,-0.577903,-0.612587,-0.629929,-0.647271,-0.664614,-0.629929,-0.612587,-0.612587,-0.525876,-0.525876,-0.508534,-0.543219,-0.577903,-0.595245,-0.664614,-0.699298,-0.681956,-0.681956,-0.612587,-0.543219,-0.525876,-0.491192,-0.491192,-0.560561,-0.560561,-0.612587,-0.647271,-0.629929,-0.612587,-0.543219,-0.525876,-0.456508,-0.404482,-0.421824,-0.317771,-0.300429,-0.283087,-0.265745,-0.283087,-0.300429,-0.317771,-0.283087,-0.196376,-0.040297,0.063756,0.081098,0.098440,0.081098,0.046414,0.029072,-0.092323,-0.092323,-0.144350,-0.196376,-0.179034,-0.179034,-0.144350,-0.161692,-0.248402,-0.317771,-0.421824,-0.508534,-0.560561,-0.647271,-0.647271,-0.612587,-0.595245,-0.560561,-0.543219,-0.508534,-0.543219,-0.560561,-0.612587,-0.629929,-0.699298,-0.716640,-0.716640,-0.681956,-0.612587,-0.612587,-0.629929,-0.647271,-0.647271,-0.612587,-0.647271,-0.664614,-0.716640,-0.751324,-0.664614,-0.595245,-0.543219,-0.508534,-0.473850,-0.421824,-0.248402,-0.057639,0.202493,0.566678,0.982889,1.520495,1.902022,2.283549,2.283549,1.902022,1.208337,0.254519,-0.733982,-1.722484,-2.589590,-3.213907,-3.526065,-3.404670,-3.040485,-2.641616,-2.173379,-1.843878,-1.618431,-1.392983,-1.184877,-0.976772,-0.786008,-0.629929,-0.439166,-0.421824,-0.369797,-0.404482,-0.369797,-0.369797,-0.283087,-0.300429,-0.300429,-0.231060,-0.213718,-0.248402,-0.265745,-0.231060,-0.196376,-0.161692,-0.127007,-0.109665,-0.040297,-0.005613,-0.005613,-0.005613,-0.109665,-0.040297,-0.057639,-0.040297,-0.057639,-0.074981,0.046414,0.046414,0.115782,0.150467,0.150467,0.167809,0.098440,0.098440,0.029072,0.029072,0.115782,0.081098,0.150467,0.219835,0.254519,0.323888,0.289204,0.358572,0.323888,0.323888,0.323888,0.323888,0.358572,0.410599,0.462625,0.584020,0.618704,0.618704,0.740099,0.688073,0.705415,0.740099,0.670731,0.757441,0.826810,0.930863,1.034915,1.086942,1.225679,1.277705,1.312389,1.416442,1.485811,1.485811,1.485811,1.537837,1.555179,1.641890,1.728601,1.832653,1.867338,1.919364,1.954048,2.006075,1.988733,1.988733,1.988733,2.040759,2.006075,2.040759,2.075443,2.058101,2.075443,2.040759,2.006075,1.936706,1.849995,1.815311,1.659232,1.607206,1.555179,1.433784,1.347074,1.312389,1.225679,1.173652,1.086942,1.000231,0.844152,0.757441,0.618704,0.531994,0.427941,0.358572,0.306546,0.271862,0.237177,0.219835,0.150467,0.000000,117.000000
2.430602,-0.676836,-0.714051,-0.676836,-0.695444,-0.714051,-0.676836,-0.658229,-0.602407,-0.621014,-0.658229,-0.621014,-0.714051,-0.714051,-0.695444,-0.695444,-0.676836,-0.676836,-0.639621,-0.621014,-0.565192,-0.602407,-0.583799,-0.621014,-0.695444,-0.714051,-0.695444,-0.714051,-0.695444,-0.658229,-0.639621,-0.602407,-0.583799,-0.546584,-0.583799,-0.602407,-0.602407,-0.621014,-0.621014,-0.658229,-0.658229,-0.639621,-0.639621,-0.639621,-0.583799,-0.621014,-0.602407,-0.583799,-0.602407,-0.602407,-0.583799,-0.658229,-0.621014,-0.602407,-0.583799,-0.565192,-0.472155,-0.472155,-0.509369,-0.546584,-0.546584,-0.509369,-0.602407,-0.565192,-0.546584,-0.546584,-0.416332,-0.379118,-0.341903,-0.193043,-0.155829,-0.193043,-0.230258,-0.248866,-0.193043,-0.211651,-0.137221,-0.044184,0.030246,0.067460,0.123283,0.160497,0.179105,0.141890,-0.006969,-0.081399,-0.081399,-0.137221,-0.155829,-0.230258,-0.174436,-0.174436,-0.230258,-0.267473,-0.416332,-0.472155,-0.490762,-0.527977,-0.546584,-0.583799,-0.602407,-0.621014,-0.546584,-0.546584,-0.565192,-0.527977,-0.546584,-0.583799,-0.658229,-0.714051,-0.825695,-0.844303,-0.788481,-0.769873,-0.695444,-0.602407,-0.565192,-0.565192,-0.565192,-0.583799,-0.583799,-0.621014,-0.676836,-0.695444,-0.695444,-0.658229,-0.639621,-0.527977,-0.509369,-0.453547,-0.286081,-0.062792,0.179105,0.495431,0.960616,1.463016,1.984024,2.449209,2.635283,2.523639,2.095668,1.425801,0.458216,-0.602407,-1.569992,-2.500363,-3.114407,-3.374911,-3.281874,-2.909726,-2.537577,-2.128214,-1.756066,-1.439740,-1.160629,-0.993162,-0.825695,-0.621014,-0.527977,-0.472155,-0.379118,-0.397725,-0.397725,-0.416332,-0.341903,-0.323295,-0.304688,-0.267473,-0.267473,-0.230258,-0.248866,-0.286081,-0.248866,-0.304688,-0.230258,-0.193043,-0.174436,-0.062792,-0.081399,-0.118614,-0.137221,-0.118614,-0.155829,-0.100006,-0.100006,-0.062792,-0.062792,-0.044184,0.086068,0.067460,0.067460,0.067460,0.048853,0.011638,-0.006969,-0.044184,-0.025577,0.011638,0.030246,0.086068,0.160497,0.160497,0.160497,0.160497,0.216320,0.197712,0.197712,0.197712,0.197712,0.216320,0.290749,0.327964,0.439609,0.458216,0.514038,0.421001,0.402394,0.476823,0.458216,0.532646,0.532646,0.607075,0.700112,0.793149,0.923401,1.016438,1.072261,1.035046,1.146690,1.165298,1.146690,1.239727,1.314157,1.407194,1.444409,1.556053,1.611876,1.723520,1.742127,1.797950,1.797950,1.835164,1.872379,1.872379,1.946809,1.965416,1.984024,2.058453,2.077061,2.114276,2.095668,2.077061,2.039846,2.021239,1.928202,1.872379,1.797950,1.797950,1.742127,1.742127,1.667698,1.630483,1.500231,1.388587,1.239727,1.053653,0.979224,0.886186,0.755935,0.588468,0.569860,0.476823,0.402394,0.327964,0.309357,1.000000,117.000000
2.679006,-0.487652,-0.487652,-0.432420,-0.450830,-0.469241,-0.524474,-0.561295,-0.579706,-0.524474,-0.579706,-0.506063,-0.506063,-0.524474,-0.469241,-0.450830,-0.432420,-0.469241,-0.450830,-0.487652,-0.542884,-0.561295,-0.542884,-0.598117,-0.542884,-0.542884,-0.450830,-0.414009,-0.432420,-0.450830,-0.469241,-0.524474,-0.561295,-0.634938,-0.579706,-0.542884,-0.524474,-0.414009,-0.432420,-0.469241,-0.487652,-0.487652,-0.469241,-0.561295,-0.524474,-0.506063,-0.542884,-0.524474,-0.542884,-0.506063,-0.414009,-0.432420,-0.395598,-0.377187,-0.414009,-0.450830,-0.542884,-0.524474,-0.524474,-0.524474,-0.487652,-0.432420,-0.395598,-0.414009,-0.414009,-0.395598,-0.414009,-0.377187,-0.377187,-0.340366,-0.303544,-0.266722,-0.211490,-0.156258,-0.119436,-0.119436,-0.137847,-0.064203,-0.008971,0.027851,0.064672,-0.027382,-0.027382,0.009440,0.101494,0.175137,0.138315,0.119905,0.083083,-0.027382,-0.101025,-0.137847,-0.193079,-0.266722,-0.340366,-0.395598,-0.377187,-0.395598,-0.432420,-0.414009,-0.432420,-0.450830,-0.469241,-0.524474,-0.561295,-0.598117,-0.598117,-0.634938,-0.542884,-0.579706,-0.542884,-0.598117,-0.598117,-0.616528,-0.690171,-0.653349,-0.726992,-0.726992,-0.726992,-0.690171,-0.616528,-0.598117,-0.579706,-0.506063,-0.579706,-0.542884,-0.506063,-0.616528,-0.579706,-0.616528,-0.524474,-0.358776,-0.101025,0.230369,0.672229,1.169320,1.592769,2.089861,2.329201,2.237147,1.795288,1.022034,0.027851,-0.984744,-1.905284,-2.715359,-3.267683,-3.580667,-3.543845,-3.249273,-2.807413,-2.383965,-2.107803,-1.757997,-1.555479,-1.334549,-1.003154,-0.782225,-0.561295,-0.358776,-0.358776,-0.321955,-0.358776,-0.395598,-0.450830,-0.414009,-0.506063,-0.450830,-0.358776,-0.285133,-0.229901,-0.174668,-0.193079,-0.193079,-0.211490,-0.321955,-0.321955,-0.285133,-0.229901,-0.211490,-0.174668,-0.193079,-0.137847,-0.082614,-0.101025,-0.119436,-0.174668,-0.174668,-0.119436,-0.119436,-0.156258,-0.082614,-0.045793,-0.027382,0.027851,0.009440,0.083083,0.101494,0.064672,0.046261,-0.008971,0.009440,0.046261,0.027851,0.046261,0.156726,0.156726,0.175137,0.267191,0.304013,0.322423,0.285602,0.340834,0.377656,0.340834,0.414477,0.506531,0.580175,0.653818,0.690639,0.745872,0.727461,0.782693,0.837926,0.856337,0.893158,0.985212,1.077266,1.187731,1.242964,1.408661,1.463893,1.537536,1.574358,1.629590,1.666412,1.684823,1.703234,1.740055,1.832109,1.887342,1.979396,2.034628,2.053039,2.089861,1.979396,2.108271,2.126682,2.053039,2.034628,1.979396,1.905752,2.034628,2.071450,1.997807,1.997807,1.868931,1.850520,1.740055,1.592769,1.482304,1.353428,1.242964,1.169320,1.058856,0.929980,0.819515,0.727461,0.653818,0.524942,0.414477,0.322423,0.138315,0.083083,0.046261,0.000000,117.000000
2.588316,-0.686661,-0.686661,-0.724522,-0.724522,-0.800244,-0.762383,-0.762383,-0.762383,-0.724522,-0.743452,-0.705591,-0.629869,-0.705591,-0.610939,-0.648800,-0.705591,-0.724522,-0.724522,-0.705591,-0.705591,-0.648800,-0.667730,-0.686661,-0.610939,-0.610939,-0.629869,-0.686661,-0.686661,-0.705591,-0.705591,-0.705591,-0.686661,-0.686661,-0.610939,-0.573078,-0.535217,-0.554147,-0.535217,-0.573078,-0.610939,-0.629869,-0.629869,-0.667730,-0.667730,-0.648800,-0.629869,-0.573078,-0.478425,-0.554147,-0.497356,-0.573078,-0.554147,-0.592008,-0.610939,-0.648800,-0.667730,-0.629869,-0.592008,-0.554147,-0.516286,-0.497356,-0.535217,-0.535217,-0.554147,-0.592008,-0.573078,-0.610939,-0.440564,-0.402703,-0.308051,-0.213398,-0.156607,-0.175537,-0.194468,-0.213398,-0.194468,-0.232329,-0.118746,-0.061954,-0.024093,0.089490,0.146281,0.184142,0.184142,0.108420,0.051629,-0.043024,-0.137676,-0.175537,-0.232329,-0.232329,-0.251259,-0.251259,-0.270190,-0.289120,-0.364842,-0.383773,-0.440564,-0.478425,-0.573078,-0.535217,-0.629869,-0.592008,-0.610939,-0.610939,-0.554147,-0.554147,-0.629869,-0.592008,-0.592008,-0.686661,-0.781313,-0.762383,-0.743452,-0.724522,-0.705591,-0.686661,-0.610939,-0.592008,-0.554147,-0.554147,-0.535217,-0.573078,-0.610939,-0.592008,-0.554147,-0.629869,-0.629869,-0.535217,-0.270190,-0.043024,0.297725,0.695266,1.149598,1.717513,2.190775,2.512594,2.588316,2.285428,1.660721,0.770988,-0.194468,-1.292437,-2.201101,-2.901529,-3.280139,-3.299070,-2.977251,-2.617572,-2.220031,-1.822491,-1.462811,-1.197784,-0.989549,-0.724522,-0.535217,-0.402703,-0.326981,-0.345912,-0.421634,-0.440564,-0.440564,-0.440564,-0.402703,-0.326981,-0.270190,-0.232329,-0.175537,-0.175537,-0.194468,-0.213398,-0.232329,-0.194468,-0.213398,-0.232329,-0.194468,-0.175537,-0.175537,-0.137676,-0.061954,-0.043024,-0.099815,-0.043024,-0.061954,-0.061954,-0.080885,-0.061954,-0.080885,-0.024093,-0.043024,-0.024093,0.070559,0.070559,0.070559,0.070559,0.070559,-0.005163,0.051629,0.070559,0.108420,0.203073,0.203073,0.222003,0.316656,0.316656,0.354517,0.297725,0.316656,0.354517,0.335586,0.392378,0.373447,0.487030,0.543822,0.638474,0.752057,0.770988,0.827779,0.903501,0.922432,0.979223,0.922432,0.922432,1.036015,1.130667,1.206389,1.319972,1.433555,1.490347,1.603930,1.584999,1.603930,1.641791,1.660721,1.736443,1.755374,1.906818,1.925748,2.020401,2.077192,2.096123,2.096123,2.115053,2.077192,2.077192,2.058262,1.963609,1.944679,1.925748,1.982540,2.001470,2.001470,1.944679,1.887887,1.774304,1.679652,1.547138,1.357833,1.244250,1.130667,1.054945,0.960293,0.903501,0.827779,0.714196,0.581683,0.468100,0.335586,0.278795,0.146281,0.108420,0.013768,0.051629,0.032698,1.000000,117.000000
2.998811,-0.468258,-0.529442,-0.509047,-0.509047,-0.529442,-0.447864,-0.468258,-0.468258,-0.386680,-0.427469,-0.427469,-0.447864,-0.447864,-0.488653,-0.468258,-0.468258,-0.468258,-0.509047,-0.427469,-0.407075,-0.366286,-0.345891,-0.407075,-0.427469,-0.468258,-0.447864,-0.509047,-0.529442,-0.529442,-0.427469,-0.468258,-0.427469,-0.366286,-0.325497,-0.407075,-0.386680,-0.447864,-0.447864,-0.488653,-0.529442,-0.529442,-0.447864,-0.447864,-0.427469,-0.407075,-0.386680,-0.366286,-0.386680,-0.345891,-0.407075,-0.447864,-0.468258,-0.509047,-0.509047,-0.447864,-0.386680,-0.386680,-0.447864,-0.427469,-0.427469,-0.447864,-0.447864,-0.447864,-0.468258,-0.447864,-0.366286,-0.325497,-0.223524,-0.121551,-0.182735,-0.121551,-0.162340,-0.080762,-0.080762,-0.141946,-0.182735,-0.141946,-0.101157,0.082394,0.184366,0.225156,0.225156,0.306734,0.265945,0.225156,0.184366,0.082394,-0.060368,-0.141946,-0.121551,-0.080762,-0.080762,-0.039973,-0.101157,-0.182735,-0.223524,-0.386680,-0.468258,-0.529442,-0.570231,-0.611020,-0.651809,-0.631414,-0.509047,-0.488653,-0.529442,-0.570231,-0.712992,-0.712992,-0.712992,-0.753782,-0.774176,-0.753782,-0.733387,-0.692598,-0.631414,-0.549836,-0.570231,-0.590625,-0.651809,-0.651809,-0.733387,-0.692598,-0.692598,-0.712992,-0.712992,-0.631414,-0.549836,-0.447864,-0.386680,-0.162340,0.021210,0.367917,0.816597,1.346854,1.815928,2.305397,2.468553,2.407369,1.775139,0.898175,-0.223524,-1.365617,-2.303765,-3.099152,-3.609015,-3.690593,-3.527437,-3.058363,-2.589289,-2.161004,-1.753113,-1.406406,-1.120883,-1.018910,-0.733387,-0.631414,-0.590625,-0.509047,-0.509047,-0.570231,-0.590625,-0.529442,-0.447864,-0.366286,-0.366286,-0.325497,-0.325497,-0.325497,-0.366286,-0.345891,-0.386680,-0.386680,-0.366286,-0.284708,-0.264313,-0.203129,-0.243918,-0.243918,-0.243918,-0.243918,-0.223524,-0.182735,-0.264313,-0.264313,-0.203129,-0.203129,-0.141946,-0.060368,-0.039973,-0.039973,-0.060368,-0.101157,-0.121551,-0.121551,-0.080762,-0.060368,-0.080762,0.021210,0.123183,0.123183,0.184366,0.163972,0.184366,0.123183,0.184366,0.123183,0.123183,0.143577,0.184366,0.286339,0.388312,0.449495,0.449495,0.490284,0.531073,0.510679,0.633046,0.592257,0.592257,0.653440,0.755413,0.857386,0.898175,1.000147,1.122514,1.244882,1.265276,1.285671,1.367249,1.408038,1.448827,1.550799,1.591589,1.571194,1.754745,1.836323,1.856717,1.938295,1.958690,2.019873,2.040268,1.999479,2.040268,2.040268,2.101452,2.081057,2.121846,2.162635,2.162635,2.183030,2.081057,1.999479,1.856717,1.795534,1.673167,1.530405,1.469221,1.367249,1.285671,1.244882,1.122514,1.000147,0.796202,0.673835,0.551468,0.408706,0.245550,0.123183,0.021210,0.000816,-0.039973,-0.060368,-0.141946,1.000000,117.000000
2.683492,-0.844450,-0.844450,-0.844450,-0.862178,-0.808993,-0.791265,-0.773536,-0.755808,-0.791265,-0.702623,-0.702623,-0.720351,-0.791265,-0.808993,-0.791265,-0.808993,-0.826721,-0.791265,-0.702623,-0.720351,-0.702623,-0.702623,-0.684894,-0.720351,-0.720351,-0.773536,-0.808993,-0.791265,-0.826721,-0.755808,-0.738080,-0.738080,-0.702623,-0.720351,-0.738080,-0.755808,-0.844450,-0.826721,-0.755808,-0.773536,-0.773536,-0.667166,-0.649438,-0.667166,-0.667166,-0.684894,-0.649438,-0.613981,-0.667166,-0.684894,-0.755808,-0.755808,-0.738080,-0.702623,-0.613981,-0.631709,-0.596253,-0.578524,-0.631709,-0.667166,-0.684894,-0.720351,-0.702623,-0.684894,-0.613981,-0.596253,-0.543068,-0.472154,-0.436698,-0.401241,-0.365784,-0.348056,-0.294871,-0.365784,-0.383513,-0.348056,-0.294871,-0.259414,-0.135316,-0.046674,-0.028946,-0.028946,0.024239,-0.046674,-0.028946,-0.082131,-0.082131,-0.135316,-0.117587,-0.170772,-0.153044,-0.135316,-0.170772,-0.170772,-0.241686,-0.330327,-0.472154,-0.578524,-0.631709,-0.702623,-0.667166,-0.578524,-0.578524,-0.525339,-0.525339,-0.543068,-0.543068,-0.631709,-0.667166,-0.720351,-0.720351,-0.684894,-0.649438,-0.649438,-0.596253,-0.631709,-0.596253,-0.667166,-0.667166,-0.738080,-0.631709,-0.631709,-0.667166,-0.613981,-0.631709,-0.543068,-0.489883,-0.418969,-0.418969,-0.348056,-0.294871,-0.028946,0.254708,0.627003,1.105669,1.637519,2.133913,2.382110,2.399838,1.974358,1.282952,0.361078,-0.613981,-1.553584,-2.351359,-2.989580,-3.184592,-3.060493,-2.705926,-2.298174,-1.908151,-1.571312,-1.394028,-1.199017,-1.021733,-0.773536,-0.613981,-0.418969,-0.365784,-0.312599,-0.241686,-0.294871,-0.294871,-0.223957,-0.223957,-0.188501,-0.170772,-0.135316,-0.153044,-0.170772,-0.170772,-0.170772,-0.117587,-0.064402,-0.046674,-0.064402,0.006511,0.006511,0.095153,0.024239,-0.046674,-0.028946,-0.011217,0.041968,0.041968,0.059696,0.077425,0.112881,0.166066,0.148338,0.166066,0.166066,0.166066,0.166066,0.148338,0.201523,0.201523,0.236980,0.290165,0.378806,0.361078,0.378806,0.378806,0.361078,0.343350,0.325621,0.378806,0.307893,0.431992,0.485177,0.502905,0.573818,0.609275,0.627003,0.680188,0.697917,0.697917,0.697917,0.733373,0.751102,0.822015,0.910657,0.981570,1.034755,1.087940,1.141125,1.194311,1.194311,1.282952,1.318409,1.371594,1.407051,1.424779,1.513421,1.672976,1.726161,1.797074,1.885716,1.921173,1.921173,1.903445,1.921173,1.903445,1.974358,1.992086,2.098456,2.063000,2.098456,2.080728,2.098456,2.080728,1.956630,1.921173,1.850259,1.779346,1.726161,1.655248,1.637519,1.566606,1.548878,1.460236,1.353866,1.265224,1.141125,0.981570,0.839744,0.733373,0.609275,0.591547,0.520633,0.485177,0.396535,0.378806,0.307893,0.000000,117.000000
2.808654,-0.669695,-0.648991,-0.566173,-0.607582,-0.628286,-0.607582,-0.504059,-0.483355,-0.586877,-0.586877,-0.607582,-0.566173,-0.586877,-0.607582,-0.628286,-0.566173,-0.586877,-0.524764,-0.545468,-0.504059,-0.483355,-0.545468,-0.545468,-0.586877,-0.669695,-0.711104,-0.648991,-0.607582,-0.586877,-0.545468,-0.504059,-0.462651,-0.421242,-0.441946,-0.524764,-0.504059,-0.545468,-0.607582,-0.586877,-0.545468,-0.566173,-0.483355,-0.441946,-0.441946,-0.441946,-0.504059,-0.462651,-0.524764,-0.524764,-0.524764,-0.524764,-0.607582,-0.504059,-0.504059,-0.462651,-0.441946,-0.400537,-0.462651,-0.566173,-0.545468,-0.566173,-0.524764,-0.566173,-0.566173,-0.462651,-0.379833,-0.297015,-0.276310,-0.172788,-0.152084,-0.172788,-0.110675,-0.152084,-0.255606,-0.214197,-0.234902,-0.110675,-0.027857,0.054961,0.117074,0.179188,0.241301,0.199892,0.220597,0.137779,0.096370,0.117074,0.034256,-0.027857,-0.089970,0.034256,0.013552,-0.027857,-0.048561,-0.193493,-0.255606,-0.400537,-0.462651,-0.483355,-0.545468,-0.462651,-0.421242,-0.421242,-0.400537,-0.462651,-0.462651,-0.545468,-0.711104,-0.669695,-0.669695,-0.773217,-0.773217,-0.752513,-0.731809,-0.607582,-0.566173,-0.607582,-0.566173,-0.586877,-0.648991,-0.648991,-0.711104,-0.669695,-0.669695,-0.628286,-0.566173,-0.524764,-0.462651,-0.400537,-0.276310,0.013552,0.303414,0.717504,1.214411,1.773431,2.249634,2.725836,2.725836,2.539496,2.001180,1.152297,0.054961,-1.000966,-1.974076,-2.905777,-3.485502,-3.651137,-3.444093,-2.926481,-2.450279,-1.994781,-1.622100,-1.311533,-1.104489,-0.918149,-0.690400,-0.504059,-0.441946,-0.379833,-0.400537,-0.359128,-0.379833,-0.317719,-0.359128,-0.359128,-0.379833,-0.359128,-0.317719,-0.297015,-0.297015,-0.359128,-0.297015,-0.214197,-0.214197,-0.131379,-0.152084,-0.131379,-0.152084,-0.172788,-0.193493,-0.214197,-0.234902,-0.214197,-0.152084,-0.131379,-0.069266,0.034256,0.013552,0.034256,-0.007152,-0.069266,-0.110675,-0.069266,-0.089970,-0.069266,-0.152084,-0.048561,0.013552,0.117074,0.137779,0.158483,0.220597,0.199892,0.158483,0.158483,0.117074,0.179188,0.199892,0.220597,0.324119,0.427641,0.489755,0.489755,0.531163,0.510459,0.593277,0.593277,0.655390,0.717504,0.800321,0.924548,0.965957,1.028071,1.131593,1.276524,1.255820,1.235115,1.297228,1.338637,1.400751,1.462864,1.545682,1.711318,1.773431,1.876953,1.980476,1.939067,2.001180,2.001180,2.063293,1.959771,2.001180,2.042589,2.104702,2.125407,2.166816,2.187520,2.208225,2.187520,2.063293,2.042589,1.876953,1.711318,1.566386,1.421455,1.317933,1.235115,1.048775,1.007366,0.883139,0.800321,0.613981,0.448346,0.282710,0.117074,-0.027857,-0.089970,-0.089970,-0.152084,-0.131379,-0.110675,-0.193493,-0.234902,-0.338424,1.000000,117.000000
2.621273,-0.573952,-0.610262,-0.664726,-0.755499,-0.719190,-0.737344,-0.755499,-0.737344,-0.682880,-0.646571,-0.610262,-0.646571,-0.610262,-0.610262,-0.664726,-0.646571,-0.682880,-0.682880,-0.719190,-0.682880,-0.682880,-0.610262,-0.646571,-0.610262,-0.628416,-0.573952,-0.610262,-0.664726,-0.719190,-0.737344,-0.719190,-0.664726,-0.664726,-0.573952,-0.592107,-0.592107,-0.573952,-0.555798,-0.592107,-0.646571,-0.610262,-0.664726,-0.682880,-0.664726,-0.646571,-0.628416,-0.610262,-0.628416,-0.628416,-0.628416,-0.555798,-0.664726,-0.610262,-0.664726,-0.628416,-0.682880,-0.628416,-0.646571,-0.628416,-0.519488,-0.555798,-0.592107,-0.610262,-0.592107,-0.628416,-0.573952,-0.555798,-0.501333,-0.465024,-0.301632,-0.247168,-0.229013,-0.247168,-0.210858,-0.265323,-0.283477,-0.265323,-0.210858,-0.192704,-0.120085,-0.065621,-0.029312,0.006998,0.061462,0.061462,-0.029312,-0.083776,-0.120085,-0.120085,-0.156394,-0.265323,-0.192704,-0.210858,-0.229013,-0.301632,-0.374251,-0.428715,-0.465024,-0.537643,-0.610262,-0.610262,-0.628416,-0.592107,-0.592107,-0.592107,-0.537643,-0.537643,-0.610262,-0.573952,-0.610262,-0.701035,-0.737344,-0.755499,-0.719190,-0.682880,-0.682880,-0.628416,-0.592107,-0.628416,-0.555798,-0.537643,-0.519488,-0.519488,-0.610262,-0.628416,-0.628416,-0.628416,-0.555798,-0.483179,-0.392405,-0.174549,0.025152,0.351937,0.787649,1.205207,1.713538,2.131096,2.476035,2.421571,2.040323,1.332290,0.460865,-0.519488,-1.481687,-2.316802,-3.006680,-3.442393,-3.460548,-3.097454,-2.698051,-2.244184,-1.862935,-1.590615,-1.300140,-1.082283,-0.791808,-0.592107,-0.428715,-0.446869,-0.374251,-0.392405,-0.446869,-0.392405,-0.428715,-0.356096,-0.283477,-0.174549,-0.156394,-0.101930,-0.083776,-0.083776,-0.083776,-0.065621,-0.156394,-0.174549,-0.156394,-0.083776,-0.083776,-0.011157,0.025152,-0.047466,0.006998,-0.029312,-0.047466,-0.029312,-0.047466,-0.047466,0.079617,0.043307,0.115926,0.152235,0.115926,0.152235,0.243009,0.224854,0.224854,0.188545,0.188545,0.188545,0.206699,0.315628,0.333782,0.388246,0.442710,0.479020,0.424556,0.460865,0.442710,0.424556,0.406401,0.442710,0.569793,0.624257,0.660567,0.715031,0.805804,0.823959,0.932887,0.914732,0.896578,0.932887,0.969196,0.951042,1.114434,1.205207,1.277826,1.368599,1.459373,1.531992,1.550146,1.550146,1.604610,1.640920,1.695384,1.713538,1.786157,1.858776,1.931395,2.004013,2.058478,2.094787,2.112942,2.094787,2.022168,2.004013,1.949549,1.967704,1.949549,1.949549,1.949549,1.931395,1.876931,1.804312,1.713538,1.640920,1.513837,1.404909,1.241517,1.150743,1.059970,0.987351,0.896578,0.860268,0.751340,0.678721,0.533484,0.497174,0.370092,0.261163,0.243009,0.134081,0.115926,0.134081,0.079617,0.000000,117.000000
2.542182,-0.634665,-0.673407,-0.750891,-0.712149,-0.634665,-0.634665,-0.615294,-0.576552,-0.537810,-0.576552,-0.576552,-0.615294,-0.712149,-0.731520,-0.692778,-0.712149,-0.654036,-0.576552,-0.615294,-0.518439,-0.576552,-0.537810,-0.576552,-0.576552,-0.673407,-0.770262,-0.770262,-0.692778,-0.615294,-0.634665,-0.595923,-0.557181,-0.576552,-0.576552,-0.557181,-0.576552,-0.595923,-0.654036,-0.634665,-0.673407,-0.615294,-0.595923,-0.576552,-0.537810,-0.499068,-0.557181,-0.576552,-0.615294,-0.595923,-0.595923,-0.654036,-0.576552,-0.557181,-0.557181,-0.518439,-0.518439,-0.460326,-0.460326,-0.537810,-0.499068,-0.557181,-0.557181,-0.576552,-0.537810,-0.499068,-0.440955,-0.324729,-0.324729,-0.247245,-0.208503,-0.169761,-0.150390,-0.189132,-0.150390,-0.189132,-0.150390,-0.072905,0.043321,0.120805,0.217660,0.217660,0.178918,0.159547,0.062692,0.043321,-0.014792,-0.053534,-0.111647,-0.092276,-0.092276,-0.034163,-0.092276,-0.150390,-0.227874,-0.285987,-0.460326,-0.537810,-0.557181,-0.615294,-0.634665,-0.615294,-0.595923,-0.518439,-0.479697,-0.460326,-0.537810,-0.615294,-0.654036,-0.692778,-0.692778,-0.731520,-0.712149,-0.692778,-0.654036,-0.576552,-0.557181,-0.576552,-0.499068,-0.634665,-0.634665,-0.673407,-0.673407,-0.673407,-0.634665,-0.595923,-0.557181,-0.479697,-0.440955,-0.344100,-0.266616,0.004579,0.295144,0.682564,1.166840,1.554260,2.077277,2.464698,2.677779,2.600295,2.212874,1.534889,0.643822,-0.266616,-1.157682,-2.010007,-2.765477,-3.249752,-3.424091,-3.269123,-2.997929,-2.533024,-2.145604,-1.816297,-1.525732,-1.312650,-1.099569,-0.867117,-0.712149,-0.499068,-0.402213,-0.363471,-0.305358,-0.285987,-0.382842,-0.402213,-0.363471,-0.344100,-0.382842,-0.363471,-0.324729,-0.324729,-0.266616,-0.189132,-0.092276,-0.072905,-0.034163,-0.072905,-0.053534,-0.092276,-0.092276,-0.131019,-0.111647,-0.150390,-0.131019,-0.131019,-0.131019,-0.034163,0.023950,0.004579,0.043321,0.023950,0.023950,-0.034163,-0.014792,-0.014792,0.043321,0.082063,0.159547,0.159547,0.237031,0.178918,0.217660,0.217660,0.217660,0.217660,0.217660,0.237031,0.237031,0.295144,0.353257,0.295144,0.430741,0.469483,0.450112,0.488854,0.450112,0.566338,0.585709,0.585709,0.663193,0.779419,0.856903,0.953758,1.031242,1.089355,1.128098,1.186211,1.205582,1.263695,1.283066,1.302437,1.341179,1.476776,1.573631,1.709228,1.728599,1.767341,1.806083,1.806083,1.902938,1.902938,1.922309,1.902938,1.941680,1.922309,1.961051,2.116019,2.212874,2.096648,2.135390,2.038535,1.902938,1.902938,1.806083,1.689857,1.573631,1.554260,1.496147,1.476776,1.379921,1.283066,1.108726,0.915016,0.837532,0.663193,0.527596,0.372628,0.333886,0.295144,0.237031,0.198289,0.140176,0.082063,0.004579,1.000000,117.000000
2.839471,-0.446765,-0.521452,-0.540124,-0.521452,-0.540124,-0.596139,-0.577468,-0.614811,-0.577468,-0.502780,-0.446765,-0.390750,-0.390750,-0.409422,-0.428093,-0.465437,-0.540124,-0.558796,-0.577468,-0.614811,-0.540124,-0.558796,-0.502780,-0.502780,-0.484109,-0.484109,-0.428093,-0.446765,-0.446765,-0.484109,-0.577468,-0.521452,-0.521452,-0.465437,-0.446765,-0.409422,-0.465437,-0.446765,-0.484109,-0.521452,-0.558796,-0.521452,-0.577468,-0.521452,-0.484109,-0.446765,-0.446765,-0.428093,-0.446765,-0.446765,-0.465437,-0.540124,-0.540124,-0.540124,-0.633483,-0.614811,-0.633483,-0.558796,-0.502780,-0.446765,-0.409422,-0.465437,-0.446765,-0.465437,-0.446765,-0.465437,-0.353406,-0.316063,-0.297391,-0.222704,-0.148016,-0.129345,-0.110673,-0.110673,-0.110673,-0.129345,-0.148016,-0.110673,-0.017314,0.057373,0.132061,0.206748,0.188076,0.206748,0.188076,0.094717,0.076045,-0.092001,-0.054657,-0.092001,-0.148016,-0.185360,-0.185360,-0.148016,-0.204032,-0.241375,-0.390750,-0.465437,-0.484109,-0.502780,-0.558796,-0.521452,-0.540124,-0.670827,-0.614811,-0.596139,-0.614811,-0.577468,-0.652155,-0.577468,-0.577468,-0.614811,-0.633483,-0.614811,-0.670827,-0.689498,-0.652155,-0.596139,-0.633483,-0.540124,-0.502780,-0.484109,-0.521452,-0.521452,-0.465437,-0.502780,-0.540124,-0.521452,-0.484109,-0.241375,-0.073329,0.225419,0.542840,0.953619,1.439086,1.905881,2.297989,2.372676,2.092599,1.551117,0.766902,-0.148016,-1.100278,-1.940509,-2.724724,-3.303550,-3.583627,-3.602298,-3.266206,-2.911442,-2.500662,-2.201914,-1.940509,-1.716447,-1.455042,-1.118950,-0.857545,-0.633483,-0.484109,-0.465437,-0.409422,-0.465437,-0.540124,-0.577468,-0.409422,-0.390750,-0.334734,-0.278719,-0.222704,-0.166688,-0.185360,-0.185360,-0.222704,-0.241375,-0.260047,-0.278719,-0.222704,-0.204032,-0.092001,-0.054657,-0.054657,-0.017314,-0.035986,-0.035986,-0.054657,-0.054657,-0.054657,-0.092001,-0.073329,-0.017314,-0.017314,0.057373,0.094717,0.038702,0.113389,0.094717,0.076045,0.076045,0.076045,0.094717,0.188076,0.206748,0.225419,0.262763,0.356122,0.337450,0.281435,0.374794,0.337450,0.356122,0.393466,0.412137,0.486825,0.561512,0.636199,0.748230,0.804245,0.841589,0.860260,0.878932,0.934948,0.953619,1.009635,1.009635,1.065650,1.140337,1.252368,1.383071,1.495101,1.569789,1.625804,1.625804,1.644476,1.719163,1.719163,1.737835,1.831194,1.924553,1.999240,2.055255,2.055255,2.092599,2.148614,2.092599,2.092599,2.092599,2.036584,2.055255,2.017912,1.980568,1.905881,1.887209,1.812522,1.663148,1.532445,1.401743,1.271040,1.177681,1.009635,0.953619,0.841589,0.766902,0.692214,0.580184,0.468153,0.412137,0.318778,0.225419,0.132061,0.076045,-0.017314,-0.073329,-0.110673,-0.035986,0.000000,117.000000
2.680405,-0.620906,-0.583391,-0.564633,-0.583391,-0.583391,-0.677178,-0.658421,-0.714693,-0.752208,-0.695935,-0.695935,-0.714693,-0.677178,-0.658421,-0.564633,-0.602148,-0.639663,-0.620906,-0.677178,-0.714693,-0.714693,-0.714693,-0.714693,-0.677178,-0.658421,-0.583391,-0.564633,-0.620906,-0.639663,-0.639663,-0.658421,-0.733450,-0.752208,-0.752208,-0.695935,-0.658421,-0.639663,-0.602148,-0.583391,-0.583391,-0.639663,-0.658421,-0.677178,-0.677178,-0.695935,-0.714693,-0.658421,-0.602148,-0.564633,-0.527118,-0.564633,-0.489603,-0.564633,-0.564633,-0.658421,-0.639663,-0.695935,-0.695935,-0.658421,-0.602148,-0.583391,-0.470846,-0.470846,-0.452089,-0.545876,-0.452089,-0.452089,-0.358301,-0.320786,-0.245757,-0.283272,-0.208242,-0.189484,-0.114455,-0.076940,-0.020667,0.016848,0.016848,0.016848,-0.039425,-0.001910,-0.020667,0.016848,-0.020667,-0.020667,0.016848,-0.001910,-0.076940,-0.058182,-0.151969,-0.114455,-0.170727,-0.245757,-0.283272,-0.358301,-0.377059,-0.508361,-0.508361,-0.508361,-0.470846,-0.602148,-0.639663,-0.695935,-0.658421,-0.695935,-0.639663,-0.620906,-0.602148,-0.583391,-0.602148,-0.564633,-0.658421,-0.602148,-0.639663,-0.677178,-0.733450,-0.789723,-0.695935,-0.808480,-0.695935,-0.602148,-0.564633,-0.527118,-0.508361,-0.545876,-0.470846,-0.545876,-0.545876,-0.527118,-0.433331,-0.170727,0.148150,0.560814,0.973477,1.461171,1.930107,2.324014,2.511588,2.530346,2.267741,1.705018,1.010992,0.148150,-0.677178,-1.502506,-2.252804,-2.834285,-3.134404,-3.153161,-2.928072,-2.552923,-2.196531,-1.858897,-1.615050,-1.371204,-1.164872,-0.883510,-0.658421,-0.489603,-0.395816,-0.377059,-0.339544,-0.414574,-0.470846,-0.489603,-0.489603,-0.433331,-0.377059,-0.302029,-0.302029,-0.208242,-0.189484,-0.170727,-0.208242,-0.170727,-0.170727,-0.208242,-0.208242,-0.133212,-0.114455,-0.058182,-0.058182,-0.039425,-0.020667,-0.020667,-0.039425,-0.114455,-0.095697,-0.076940,-0.076940,-0.001910,-0.001910,0.073120,0.148150,0.129392,0.129392,0.110635,0.129392,0.110635,0.129392,0.054362,0.073120,0.091877,0.185665,0.241937,0.260694,0.316967,0.316967,0.410754,0.354482,0.391997,0.391997,0.410754,0.448269,0.504541,0.560814,0.654601,0.635843,0.710873,0.785903,0.823418,0.860933,0.860933,0.898448,0.917205,0.992235,1.086022,1.236082,1.292354,1.404899,1.442414,1.498686,1.554958,1.554958,1.611231,1.611231,1.686260,1.723775,1.761290,1.855078,1.873835,2.023895,2.023895,2.117682,2.061409,2.061409,2.080167,2.080167,2.023895,2.023895,2.023895,2.042652,2.098924,2.023895,1.967622,1.892592,1.761290,1.611231,1.479929,1.348626,1.254839,1.142294,1.048507,0.935963,0.785903,0.785903,0.673358,0.542056,0.467026,0.316967,0.223180,0.073120,-0.001910,-0.020667,1.000000,117.000000
2.816284,-0.702680,-0.645306,-0.587931,-0.626181,-0.587931,-0.530557,-0.492307,-0.511432,-0.568807,-0.587931,-0.626181,-0.587931,-0.626181,-0.645306,-0.549682,-0.568807,-0.568807,-0.530557,-0.587931,-0.568807,-0.626181,-0.607056,-0.721805,-0.760055,-0.645306,-0.626181,-0.626181,-0.587931,-0.511432,-0.549682,-0.568807,-0.587931,-0.607056,-0.645306,-0.683555,-0.683555,-0.664431,-0.664431,-0.626181,-0.568807,-0.530557,-0.511432,-0.511432,-0.492307,-0.492307,-0.530557,-0.568807,-0.587931,-0.587931,-0.587931,-0.549682,-0.511432,-0.473183,-0.568807,-0.549682,-0.549682,-0.530557,-0.530557,-0.568807,-0.568807,-0.549682,-0.530557,-0.492307,-0.434933,-0.377558,-0.377558,-0.281934,-0.281934,-0.301059,-0.281934,-0.243685,-0.262810,-0.301059,-0.205435,-0.167186,-0.071562,0.043187,0.157936,0.119687,0.177061,0.196186,0.138811,0.081437,0.062312,0.043187,-0.014187,-0.071562,-0.071562,-0.071562,-0.090686,-0.090686,-0.128936,-0.167186,-0.205435,-0.339309,-0.511432,-0.473183,-0.511432,-0.568807,-0.511432,-0.473183,-0.473183,-0.473183,-0.492307,-0.549682,-0.587931,-0.702680,-0.779179,-0.702680,-0.702680,-0.702680,-0.702680,-0.587931,-0.645306,-0.626181,-0.664431,-0.645306,-0.664431,-0.702680,-0.721805,-0.702680,-0.683555,-0.683555,-0.626181,-0.530557,-0.511432,-0.454058,-0.473183,-0.377558,-0.224560,-0.033312,0.253560,0.597807,1.037677,1.515798,2.013043,2.395539,2.567662,2.395539,1.879169,1.095052,0.215311,-0.760055,-1.639796,-2.366539,-3.016782,-3.303654,-3.284529,-3.055032,-2.691660,-2.290039,-1.926668,-1.697170,-1.467673,-1.295549,-1.046927,-0.874803,-0.683555,-0.492307,-0.396683,-0.358434,-0.320184,-0.339309,-0.320184,-0.434933,-0.415808,-0.415808,-0.358434,-0.339309,-0.301059,-0.320184,-0.281934,-0.205435,-0.148061,-0.128936,-0.109811,-0.128936,-0.148061,-0.148061,-0.224560,-0.167186,-0.167186,-0.109811,-0.014187,0.043187,0.062312,0.043187,0.043187,-0.052437,-0.033312,-0.128936,-0.148061,-0.109811,-0.090686,0.004938,0.024062,0.119687,0.138811,0.234435,0.196186,0.157936,0.177061,0.100562,0.215311,0.196186,0.177061,0.253560,0.310935,0.368309,0.406559,0.483058,0.502183,0.502183,0.463933,0.502183,0.502183,0.578682,0.655181,0.674306,0.827304,0.884679,0.980303,1.056802,1.056802,1.095052,1.171551,1.228925,1.267175,1.381924,1.439298,1.592297,1.649671,1.764420,1.802670,1.821794,1.860044,1.898294,1.879169,1.936543,1.993918,2.013043,2.051292,2.089542,2.108667,2.166041,2.242540,2.204291,2.127791,2.127791,2.070417,1.898294,1.860044,1.783545,1.668796,1.630546,1.554047,1.477548,1.381924,1.305425,1.152426,0.961178,0.808180,0.655181,0.540432,0.463933,0.425683,0.368309,0.406559,0.310935,0.253560,0.138811,0.062312,-0.033312,-0.090686,1.000000,117.000000
2.860240,-0.643156,-0.625281,-0.607407,-0.607407,-0.500160,-0.518035,-0.482286,-0.518035,-0.553784,-0.553784,-0.607407,-0.607407,-0.607407,-0.571658,-0.535909,-0.535909,-0.500160,-0.446537,-0.518035,-0.446537,-0.518035,-0.589532,-0.589532,-0.625281,-0.714654,-0.661030,-0.589532,-0.553784,-0.500160,-0.482286,-0.518035,-0.500160,-0.518035,-0.535909,-0.553784,-0.589532,-0.625281,-0.589532,-0.571658,-0.571658,-0.482286,-0.482286,-0.464411,-0.535909,-0.535909,-0.553784,-0.589532,-0.589532,-0.607407,-0.625281,-0.607407,-0.553784,-0.553784,-0.518035,-0.464411,-0.482286,-0.518035,-0.518035,-0.518035,-0.571658,-0.571658,-0.518035,-0.482286,-0.446537,-0.392913,-0.375039,-0.357164,-0.267792,-0.267792,-0.267792,-0.285667,-0.285667,-0.285667,-0.285667,-0.267792,-0.160545,-0.106922,0.000325,0.071823,0.107572,0.053948,0.107572,0.107572,0.000325,0.036074,-0.071173,-0.053298,-0.053298,0.000325,0.000325,-0.053298,-0.124796,-0.196294,-0.285667,-0.339290,-0.446537,-0.518035,-0.518035,-0.535909,-0.518035,-0.518035,-0.464411,-0.428662,-0.428662,-0.518035,-0.500160,-0.589532,-0.643156,-0.643156,-0.643156,-0.643156,-0.589532,-0.589532,-0.535909,-0.571658,-0.589532,-0.571658,-0.535909,-0.571658,-0.625281,-0.607407,-0.571658,-0.518035,-0.500160,-0.482286,-0.446537,-0.410788,-0.375039,-0.428662,-0.375039,-0.178420,0.036074,0.357814,0.786802,1.269412,1.769897,2.252508,2.556374,2.556374,2.091638,1.305161,0.393563,-0.714654,-1.697750,-2.591473,-3.217079,-3.538820,-3.538820,-3.199205,-2.734469,-2.323356,-2.037364,-1.733499,-1.554754,-1.411758,-1.322386,-1.000645,-0.768277,-0.571658,-0.428662,-0.339290,-0.339290,-0.339290,-0.375039,-0.410788,-0.410788,-0.392913,-0.410788,-0.375039,-0.357164,-0.249918,-0.232043,-0.178420,-0.160545,-0.196294,-0.178420,-0.178420,-0.178420,-0.249918,-0.249918,-0.249918,-0.232043,-0.178420,-0.124796,-0.089047,-0.035424,-0.017549,-0.053298,-0.124796,-0.089047,-0.124796,-0.142671,-0.089047,-0.106922,-0.017549,0.018199,0.071823,0.089697,0.143321,0.089697,0.089697,0.089697,0.018199,0.018199,0.107572,0.143321,0.196944,0.196944,0.268442,0.286316,0.393563,0.393563,0.393563,0.411438,0.375689,0.375689,0.411438,0.518685,0.554434,0.590182,0.608057,0.786802,0.822551,0.894048,0.911923,0.965546,1.001295,0.983421,1.072793,1.144291,1.180040,1.269412,1.376659,1.448157,1.483906,1.609027,1.626902,1.644776,1.662651,1.644776,1.662651,1.752023,1.841395,1.895019,1.984391,1.984391,1.948642,2.002266,2.020140,2.002266,1.930768,1.877144,1.930768,1.912893,1.877144,1.859270,1.841395,1.841395,1.769897,1.716274,1.644776,1.483906,1.394534,1.269412,1.144291,0.983421,1.019170,0.947672,0.894048,0.768927,0.661680,0.608057,0.500810,0.375689,0.000000,117.000000
2.844604,-0.745789,-0.764108,-0.709153,-0.690834,-0.617561,-0.580924,-0.599243,-0.580924,-0.690834,-0.654198,-0.690834,-0.727471,-0.709153,-0.690834,-0.672516,-0.635879,-0.617561,-0.635879,-0.599243,-0.617561,-0.635879,-0.690834,-0.709153,-0.727471,-0.764108,-0.654198,-0.654198,-0.599243,-0.562606,-0.617561,-0.617561,-0.654198,-0.690834,-0.709153,-0.709153,-0.709153,-0.727471,-0.782426,-0.654198,-0.635879,-0.635879,-0.617561,-0.599243,-0.562606,-0.599243,-0.580924,-0.672516,-0.672516,-0.654198,-0.635879,-0.617561,-0.580924,-0.562606,-0.562606,-0.544288,-0.580924,-0.580924,-0.562606,-0.617561,-0.617561,-0.617561,-0.599243,-0.617561,-0.599243,-0.525969,-0.434378,-0.489333,-0.397741,-0.397741,-0.379423,-0.397741,-0.324468,-0.306149,-0.287831,-0.269513,-0.232876,-0.214558,-0.122966,0.005262,0.096854,0.078536,0.115172,0.078536,0.078536,-0.031374,-0.049693,-0.013056,-0.049693,-0.086329,-0.141284,-0.196239,-0.196239,-0.196239,-0.251194,-0.306149,-0.416059,-0.489333,-0.525969,-0.507651,-0.544288,-0.544288,-0.544288,-0.525969,-0.580924,-0.617561,-0.654198,-0.690834,-0.727471,-0.745789,-0.709153,-0.709153,-0.654198,-0.617561,-0.580924,-0.544288,-0.580924,-0.599243,-0.635879,-0.727471,-0.690834,-0.745789,-0.727471,-0.617561,-0.580924,-0.525969,-0.544288,-0.544288,-0.471014,-0.434378,-0.269513,-0.104648,0.188446,0.646404,1.177636,1.708867,2.221781,2.624784,2.789649,2.624784,2.038597,1.269227,0.371629,-0.690834,-1.625069,-2.431076,-3.017263,-3.200446,-3.127173,-2.742488,-2.321166,-1.954799,-1.551796,-1.331976,-1.057201,-0.928973,-0.727471,-0.672516,-0.544288,-0.434378,-0.434378,-0.452696,-0.416059,-0.397741,-0.379423,-0.306149,-0.287831,-0.342786,-0.324468,-0.287831,-0.287831,-0.306149,-0.232876,-0.141284,-0.122966,-0.141284,-0.141284,-0.141284,-0.104648,-0.159603,-0.141284,-0.086329,-0.159603,-0.159603,-0.104648,-0.049693,0.060217,0.060217,0.096854,0.041899,0.023581,-0.013056,-0.086329,-0.031374,-0.013056,0.023581,0.060217,0.151809,0.206764,0.206764,0.206764,0.225082,0.243401,0.280037,0.170127,0.188446,0.206764,0.243401,0.316674,0.371629,0.481539,0.499857,0.518176,0.499857,0.518176,0.518176,0.554812,0.609767,0.646404,0.701359,0.792951,0.884542,0.957816,1.031089,1.086044,1.104362,1.177636,1.122681,1.214272,1.287546,1.324182,1.434092,1.489047,1.672231,1.763822,1.818777,1.855414,1.855414,1.928687,1.892051,1.892051,2.020279,2.038597,2.130189,2.111871,2.148507,2.185144,2.221781,2.148507,2.111871,2.038597,1.983642,1.892051,1.818777,1.745504,1.653912,1.617276,1.489047,1.434092,1.342501,1.232591,1.049407,0.902861,0.756314,0.609767,0.499857,0.481539,0.371629,0.353311,0.353311,0.298356,0.206764,0.133491,0.041899,-0.031374,1.000000,117.000000
2.888093,-0.585248,-0.532085,-0.496643,-0.478922,-0.514364,-0.514364,-0.514364,-0.532085,-0.532085,-0.585248,-0.602970,-0.620691,-0.602970,-0.567527,-0.496643,-0.478922,-0.532085,-0.514364,-0.532085,-0.602970,-0.620691,-0.602970,-0.602970,-0.638412,-0.567527,-0.496643,-0.461200,-0.478922,-0.549806,-0.514364,-0.585248,-0.549806,-0.620691,-0.620691,-0.585248,-0.656133,-0.620691,-0.602970,-0.532085,-0.514364,-0.514364,-0.532085,-0.532085,-0.549806,-0.656133,-0.620691,-0.656133,-0.585248,-0.585248,-0.549806,-0.514364,-0.496643,-0.443479,-0.461200,-0.496643,-0.514364,-0.532085,-0.567527,-0.549806,-0.567527,-0.549806,-0.514364,-0.478922,-0.425758,-0.514364,-0.408037,-0.425758,-0.461200,-0.408037,-0.408037,-0.354874,-0.337153,-0.283989,-0.213105,-0.213105,-0.159941,-0.106778,-0.124499,-0.089057,-0.089057,-0.053614,-0.018172,-0.018172,0.052712,0.105876,0.052712,0.105876,0.141318,0.159039,0.088155,-0.018172,-0.071336,-0.159941,-0.159941,-0.230826,-0.230826,-0.230826,-0.301710,-0.354874,-0.372595,-0.443479,-0.514364,-0.496643,-0.567527,-0.585248,-0.567527,-0.585248,-0.585248,-0.620691,-0.585248,-0.532085,-0.532085,-0.549806,-0.620691,-0.638412,-0.656133,-0.656133,-0.691575,-0.709296,-0.673854,-0.638412,-0.585248,-0.602970,-0.496643,-0.549806,-0.549806,-0.514364,-0.461200,-0.496643,-0.372595,-0.319431,-0.089057,0.247645,0.655231,1.133701,1.612172,2.037479,2.285575,2.232411,1.877989,1.169144,0.336250,-0.673854,-1.595353,-2.357362,-2.977601,-3.349745,-3.402908,-3.207976,-2.800390,-2.428246,-2.109266,-1.861170,-1.577632,-1.329536,-1.116882,-0.851065,-0.602970,-0.478922,-0.354874,-0.337153,-0.354874,-0.390316,-0.408037,-0.425758,-0.443479,-0.461200,-0.425758,-0.372595,-0.301710,-0.248547,-0.195384,-0.213105,-0.177662,-0.195384,-0.230826,-0.195384,-0.248547,-0.195384,-0.177662,-0.177662,-0.142220,-0.071336,-0.035893,-0.018172,-0.000451,-0.089057,-0.106778,-0.124499,-0.159941,-0.213105,-0.124499,-0.071336,-0.053614,-0.018172,0.070433,0.105876,0.070433,0.070433,0.088155,0.034991,0.052712,0.034991,0.052712,0.052712,0.105876,0.141318,0.159039,0.247645,0.194481,0.300808,0.229924,0.265366,0.300808,0.318529,0.424856,0.460298,0.531183,0.584346,0.672952,0.672952,0.761558,0.743836,0.761558,0.814721,0.885605,0.885605,0.974211,1.115980,1.204586,1.346355,1.381797,1.452682,1.541287,1.559008,1.594451,1.576730,1.594451,1.665335,1.718499,1.807104,1.931152,1.984316,2.108364,2.019758,2.037479,2.143806,2.143806,2.108364,2.090642,2.055200,2.055200,2.143806,2.072921,2.090642,2.072921,2.002037,1.913431,1.877989,1.753941,1.629893,1.488124,1.328634,1.240028,1.186865,1.062817,0.956490,0.867884,0.743836,0.637510,0.513462,0.389414,0.283087,0.194481,0.000000,117.000000
2.632255,-0.718916,-0.701731,-0.667360,-0.667360,-0.667360,-0.684545,-0.718916,-0.701731,-0.736102,-0.753287,-0.684545,-0.650174,-0.632989,-0.598618,-0.598618,-0.598618,-0.615803,-0.598618,-0.650174,-0.701731,-0.770473,-0.701731,-0.667360,-0.667360,-0.615803,-0.632989,-0.615803,-0.581432,-0.632989,-0.632989,-0.684545,-0.701731,-0.753287,-0.736102,-0.684545,-0.650174,-0.581432,-0.547061,-0.495505,-0.547061,-0.547061,-0.598618,-0.632989,-0.667360,-0.701731,-0.701731,-0.667360,-0.615803,-0.615803,-0.564247,-0.581432,-0.598618,-0.581432,-0.598618,-0.598618,-0.598618,-0.598618,-0.615803,-0.581432,-0.564247,-0.564247,-0.547061,-0.564247,-0.495505,-0.512690,-0.529876,-0.529876,-0.512690,-0.547061,-0.547061,-0.409577,-0.358021,-0.237722,-0.168980,-0.168980,-0.186166,-0.168980,-0.186166,-0.168980,-0.186166,-0.151795,-0.134609,-0.117424,-0.048682,-0.014311,0.002875,0.002875,-0.083053,-0.151795,-0.203351,-0.254908,-0.289279,-0.358021,-0.375206,-0.375206,-0.409577,-0.478319,-0.495505,-0.495505,-0.512690,-0.564247,-0.598618,-0.564247,-0.615803,-0.632989,-0.632989,-0.581432,-0.564247,-0.581432,-0.615803,-0.598618,-0.632989,-0.650174,-0.632989,-0.753287,-0.770473,-0.718916,-0.667360,-0.701731,-0.684545,-0.650174,-0.564247,-0.564247,-0.529876,-0.495505,-0.529876,-0.547061,-0.564247,-0.478319,-0.323650,-0.117424,0.191915,0.604367,1.171488,1.669868,2.099505,2.460400,2.494771,2.151062,1.498013,0.604367,-0.426763,-1.303223,-2.128127,-2.798361,-3.090514,-3.038958,-2.763990,-2.403095,-2.007828,-1.681304,-1.457892,-1.286037,-1.062626,-0.873586,-0.684545,-0.495505,-0.409577,-0.358021,-0.340835,-0.375206,-0.409577,-0.443948,-0.461134,-0.443948,-0.409577,-0.375206,-0.323650,-0.272093,-0.203351,-0.186166,-0.168980,-0.203351,-0.220537,-0.289279,-0.306464,-0.272093,-0.220537,-0.220537,-0.134609,-0.048682,-0.065867,-0.083053,-0.048682,-0.065867,-0.100238,-0.083053,-0.100238,-0.083053,-0.083053,-0.014311,0.002875,0.037246,0.088802,0.105988,0.123173,0.157544,0.123173,0.105988,0.123173,0.157544,0.157544,0.226286,0.243472,0.295028,0.363770,0.329399,0.415327,0.415327,0.415327,0.432512,0.398141,0.484069,0.535625,0.587181,0.621552,0.690294,0.724665,0.810593,0.844964,0.879335,0.930891,0.982448,1.051190,1.119932,1.188674,1.257416,1.377714,1.446456,1.566755,1.635497,1.669868,1.704239,1.755795,1.755795,1.807352,1.824537,1.841723,1.910465,1.962021,2.065134,2.082320,2.133876,2.202618,2.185433,2.185433,2.168247,2.151062,2.082320,2.082320,2.065134,2.047949,2.047949,1.996392,1.910465,1.772981,1.738610,1.532384,1.429271,1.291787,1.154303,1.102746,0.982448,0.896520,0.827778,0.776222,0.655923,0.569996,0.432512,0.260657,0.209101,0.140359,0.037246,-0.014311,1.000000,117.000000
2.512435,-0.723722,-0.761795,-0.685650,-0.666614,-0.666614,-0.685650,-0.666614,-0.799867,-0.742759,-0.761795,-0.742759,-0.742759,-0.723722,-0.704686,-0.704686,-0.723722,-0.723722,-0.723722,-0.742759,-0.723722,-0.818904,-0.780831,-0.818904,-0.780831,-0.685650,-0.666614,-0.666614,-0.590469,-0.647578,-0.628541,-0.685650,-0.704686,-0.723722,-0.799867,-0.742759,-0.685650,-0.685650,-0.647578,-0.609505,-0.628541,-0.590469,-0.609505,-0.590469,-0.628541,-0.685650,-0.723722,-0.723722,-0.666614,-0.609505,-0.609505,-0.590469,-0.609505,-0.571433,-0.533360,-0.628541,-0.590469,-0.685650,-0.685650,-0.666614,-0.647578,-0.647578,-0.609505,-0.571433,-0.476252,-0.533360,-0.590469,-0.552396,-0.552396,-0.495288,-0.533360,-0.419143,-0.381070,-0.247817,-0.247817,-0.095527,-0.038419,-0.057455,-0.152636,-0.171672,-0.114563,-0.114563,-0.019382,0.018690,0.075799,0.094835,0.113871,0.170980,0.190016,0.151944,0.075799,0.018690,-0.114563,-0.114563,-0.228781,-0.209745,-0.152636,-0.171672,-0.247817,-0.247817,-0.342998,-0.362034,-0.438179,-0.495288,-0.514324,-0.571433,-0.590469,-0.666614,-0.609505,-0.533360,-0.476252,-0.514324,-0.552396,-0.590469,-0.647578,-0.704686,-0.723722,-0.780831,-0.761795,-0.723722,-0.723722,-0.609505,-0.552396,-0.514324,-0.533360,-0.495288,-0.514324,-0.495288,-0.571433,-0.552396,-0.571433,-0.381070,-0.209745,0.151944,0.570740,1.141827,1.770022,2.264964,2.588580,2.493398,2.074602,1.179899,0.209052,-0.895048,-1.942040,-2.703489,-3.217467,-3.312648,-3.008069,-2.608308,-2.132403,-1.713606,-1.409026,-1.123483,-0.895048,-0.666614,-0.533360,-0.362034,-0.381070,-0.304926,-0.247817,-0.266853,-0.304926,-0.304926,-0.304926,-0.342998,-0.400107,-0.400107,-0.323962,-0.228781,-0.152636,-0.152636,-0.095527,-0.057455,-0.076491,-0.076491,-0.133600,-0.133600,-0.152636,-0.133600,-0.171672,-0.095527,-0.095527,-0.057455,-0.000346,-0.038419,-0.019382,-0.038419,-0.057455,-0.057455,-0.076491,-0.019382,-0.057455,-0.019382,-0.000346,0.056763,0.151944,0.132907,0.170980,0.151944,0.132907,0.113871,0.113871,0.170980,0.247125,0.304233,0.399414,0.437487,0.475559,0.513632,0.494596,0.551704,0.532668,0.494596,0.551704,0.551704,0.684958,0.742066,0.875320,0.951465,1.027610,1.103755,1.141827,1.256044,1.275081,1.370262,1.389298,1.389298,1.541588,1.617732,1.712914,1.827131,1.865203,1.903276,1.941348,1.998457,1.998457,2.017493,2.017493,2.055565,2.131710,2.169783,2.150747,2.284000,2.322073,2.207855,2.188819,2.169783,2.093638,2.055565,1.922312,1.865203,1.750986,1.693877,1.598696,1.503515,1.427370,1.275081,1.160863,1.027610,0.837247,0.723030,0.513632,0.418451,0.399414,0.285197,0.228089,0.170980,0.151944,0.094835,0.075799,-0.019382,-0.076491,-0.152636,-0.171672,1.000000,117.000000
2.566038,-0.681530,-0.591320,-0.555236,-0.555236,-0.573278,-0.501110,-0.501110,-0.483068,-0.501110,-0.519152,-0.555236,-0.573278,-0.573278,-0.573278,-0.609362,-0.591320,-0.519152,-0.446983,-0.465026,-0.465026,-0.446983,-0.501110,-0.519152,-0.537194,-0.591320,-0.555236,-0.609362,-0.537194,-0.537194,-0.591320,-0.537194,-0.609362,-0.591320,-0.627404,-0.609362,-0.609362,-0.573278,-0.573278,-0.555236,-0.519152,-0.501110,-0.465026,-0.446983,-0.483068,-0.465026,-0.501110,-0.519152,-0.609362,-0.699572,-0.645446,-0.609362,-0.573278,-0.555236,-0.501110,-0.465026,-0.465026,-0.483068,-0.519152,-0.555236,-0.645446,-0.609362,-0.573278,-0.627404,-0.609362,-0.537194,-0.483068,-0.483068,-0.446983,-0.374815,-0.374815,-0.302647,-0.302647,-0.266563,-0.248521,-0.248521,-0.248521,-0.230479,-0.158311,-0.104185,-0.050058,0.004068,-0.050058,-0.032016,-0.068101,-0.086143,-0.068101,-0.068101,-0.032016,-0.068101,-0.068101,-0.122227,-0.068101,-0.176353,-0.194395,-0.248521,-0.356773,-0.446983,-0.519152,-0.537194,-0.573278,-0.537194,-0.483068,-0.519152,-0.537194,-0.555236,-0.537194,-0.573278,-0.645446,-0.645446,-0.717614,-0.735656,-0.699572,-0.645446,-0.573278,-0.609362,-0.555236,-0.573278,-0.609362,-0.591320,-0.627404,-0.645446,-0.591320,-0.573278,-0.573278,-0.501110,-0.501110,-0.428941,-0.446983,-0.465026,-0.374815,-0.194395,-0.068101,0.256656,0.617497,1.176801,1.736104,2.223239,2.439744,2.349534,1.862398,0.996380,-0.104185,-1.204749,-2.197062,-3.026996,-3.514131,-3.622384,-3.423921,-2.990912,-2.521819,-2.052726,-1.746011,-1.511464,-1.258876,-1.042371,-0.825866,-0.645446,-0.573278,-0.501110,-0.428941,-0.392857,-0.374815,-0.374815,-0.374815,-0.338731,-0.374815,-0.392857,-0.356773,-0.338731,-0.320689,-0.248521,-0.230479,-0.176353,-0.158311,-0.086143,-0.140269,-0.086143,-0.140269,-0.176353,-0.122227,-0.140269,-0.122227,-0.122227,-0.068101,-0.104185,-0.050058,0.040152,0.022110,0.004068,-0.013974,-0.032016,-0.050058,-0.086143,0.040152,0.094278,0.166446,0.202530,0.130362,0.148404,0.202530,0.220572,0.238614,0.238614,0.220572,0.256656,0.292740,0.346867,0.346867,0.509245,0.473161,0.527287,0.563371,0.635539,0.671623,0.635539,0.617497,0.635539,0.707707,0.797918,0.870086,1.014422,1.032464,1.122675,1.230927,1.285053,1.339179,1.339179,1.339179,1.447431,1.501557,1.573726,1.627852,1.718062,1.880440,1.916525,1.952609,1.970651,1.970651,1.970651,1.970651,1.988693,2.006735,1.934567,2.006735,2.042819,2.096945,2.133029,2.078903,2.078903,2.006735,1.934567,1.790230,1.718062,1.627852,1.555684,1.483515,1.393305,1.357221,1.230927,1.176801,1.068548,0.942254,0.815960,0.635539,0.563371,0.473161,0.382951,0.328824,0.346867,0.292740,0.256656,0.184488,0.094278,0.040152,0.000000,117.000000
2.656159,-0.593735,-0.553613,-0.593735,-0.573674,-0.593735,-0.653918,-0.653918,-0.673979,-0.633857,-0.633857,-0.633857,-0.573674,-0.533552,-0.493430,-0.513491,-0.533552,-0.633857,-0.694040,-0.673979,-0.653918,-0.653918,-0.613796,-0.553613,-0.553613,-0.553613,-0.533552,-0.553613,-0.553613,-0.513491,-0.653918,-0.653918,-0.694040,-0.714101,-0.593735,-0.593735,-0.573674,-0.533552,-0.513491,-0.513491,-0.553613,-0.573674,-0.593735,-0.613796,-0.653918,-0.633857,-0.613796,-0.553613,-0.553613,-0.533552,-0.513491,-0.493430,-0.553613,-0.593735,-0.613796,-0.613796,-0.613796,-0.573674,-0.513491,-0.513491,-0.473368,-0.413185,-0.393124,-0.393124,-0.453307,-0.453307,-0.493430,-0.613796,-0.513491,-0.453307,-0.393124,-0.232636,-0.212574,-0.172452,-0.172452,-0.072147,-0.152391,-0.092208,-0.092208,-0.072147,0.028158,0.088342,0.128464,0.168586,0.228769,0.188647,0.168586,0.168586,0.068281,-0.052086,-0.072147,-0.152391,-0.192513,-0.152391,-0.132330,-0.172452,-0.272758,-0.312880,-0.393124,-0.413185,-0.513491,-0.613796,-0.573674,-0.593735,-0.593735,-0.573674,-0.513491,-0.513491,-0.513491,-0.513491,-0.533552,-0.633857,-0.633857,-0.653918,-0.694040,-0.673979,-0.714101,-0.714101,-0.694040,-0.653918,-0.653918,-0.653918,-0.633857,-0.633857,-0.653918,-0.673979,-0.673979,-0.694040,-0.633857,-0.633857,-0.493430,-0.252697,0.048220,0.509624,1.031212,1.532739,2.094449,2.515732,2.636098,2.455549,1.893839,1.071334,0.128464,-0.854529,-1.717155,-2.499537,-3.041186,-3.261858,-3.201675,-2.840575,-2.499537,-2.098316,-1.777338,-1.536605,-1.255750,-1.055140,-0.774285,-0.573674,-0.493430,-0.353002,-0.353002,-0.393124,-0.473368,-0.533552,-0.533552,-0.493430,-0.413185,-0.373063,-0.332941,-0.292819,-0.192513,-0.272758,-0.232636,-0.252697,-0.332941,-0.353002,-0.332941,-0.292819,-0.272758,-0.212574,-0.212574,-0.112269,-0.092208,-0.092208,-0.072147,-0.132330,-0.152391,-0.172452,-0.192513,-0.172452,-0.092208,-0.032025,-0.032025,-0.011964,0.008097,-0.032025,0.008097,0.008097,-0.011964,0.008097,0.008097,0.008097,0.088342,0.128464,0.148525,0.208708,0.188647,0.188647,0.288952,0.268891,0.248830,0.228769,0.268891,0.329075,0.389258,0.509624,0.549746,0.650052,0.670113,0.730296,0.730296,0.770418,0.770418,0.810540,0.870724,0.930907,1.091395,1.191701,1.352189,1.432434,1.472556,1.592922,1.512678,1.532739,1.532739,1.612983,1.733350,1.793533,1.873777,1.913900,1.994144,2.074388,2.074388,2.114510,2.134571,2.094449,2.114510,2.134571,2.094449,2.114510,2.114510,2.134571,2.134571,2.074388,2.014205,1.933961,1.813594,1.653106,1.512678,1.412373,1.251884,1.151579,1.031212,1.031212,0.890785,0.850663,0.730296,0.589869,0.509624,0.389258,0.228769,0.108403,0.068281,0.028158,0.048220,1.000000,117.000000
2.676244,-0.609986,-0.591420,-0.591420,-0.480023,-0.442890,-0.368625,-0.387191,-0.442890,-0.480023,-0.609986,-0.609986,-0.572854,-0.609986,-0.572854,-0.554288,-0.572854,-0.461456,-0.480023,-0.442890,-0.517155,-0.517155,-0.554288,-0.498589,-0.535721,-0.572854,-0.535721,-0.498589,-0.480023,-0.461456,-0.480023,-0.442890,-0.517155,-0.480023,-0.480023,-0.535721,-0.517155,-0.554288,-0.572854,-0.554288,-0.461456,-0.405757,-0.368625,-0.368625,-0.424324,-0.442890,-0.461456,-0.480023,-0.517155,-0.554288,-0.554288,-0.517155,-0.461456,-0.424324,-0.350059,-0.424324,-0.442890,-0.424324,-0.461456,-0.480023,-0.480023,-0.572854,-0.498589,-0.498589,-0.442890,-0.424324,-0.331492,-0.331492,-0.294360,-0.257227,-0.220095,-0.331492,-0.220095,-0.257227,-0.220095,-0.182962,-0.052998,-0.052998,0.076966,0.132664,0.132664,0.169797,0.132664,0.039833,0.021267,0.002701,-0.034432,-0.034432,-0.052998,-0.108697,-0.071565,-0.108697,-0.090131,-0.145830,-0.312926,-0.387191,-0.424324,-0.517155,-0.535721,-0.609986,-0.535721,-0.535721,-0.461456,-0.498589,-0.517155,-0.517155,-0.572854,-0.609986,-0.609986,-0.609986,-0.647119,-0.684252,-0.684252,-0.665685,-0.517155,-0.591420,-0.609986,-0.609986,-0.684252,-0.609986,-0.665685,-0.721384,-0.721384,-0.609986,-0.591420,-0.535721,-0.480023,-0.405757,-0.461456,-0.405757,-0.331492,-0.220095,0.002701,0.299761,0.726785,1.190942,1.673665,2.044991,2.267786,2.230653,1.729364,1.060978,0.132664,-0.851348,-1.723963,-2.596578,-3.209265,-3.562024,-3.543458,-3.264963,-2.837939,-2.429481,-2.113855,-1.816794,-1.649698,-1.408336,-1.185541,-1.018444,-0.758517,-0.609986,-0.442890,-0.405757,-0.368625,-0.387191,-0.424324,-0.405757,-0.405757,-0.461456,-0.405757,-0.331492,-0.312926,-0.294360,-0.275794,-0.257227,-0.257227,-0.220095,-0.257227,-0.238661,-0.257227,-0.275794,-0.182962,-0.257227,-0.294360,-0.145830,-0.108697,-0.071565,0.002701,-0.015866,0.002701,-0.015866,-0.034432,-0.071565,-0.071565,-0.071565,-0.034432,-0.034432,0.021267,0.021267,0.058399,0.076966,0.132664,0.206930,0.151231,0.169797,0.188363,0.169797,0.151231,0.169797,0.206930,0.318327,0.374026,0.392592,0.448291,0.466857,0.466857,0.466857,0.485424,0.466857,0.503990,0.633954,0.726785,0.708219,0.819617,0.856749,0.875315,0.986713,0.949580,0.986713,1.042412,1.116677,1.172376,1.320906,1.413737,1.488002,1.617966,1.692231,1.785063,1.747930,1.822195,1.840762,1.915027,1.915027,1.915027,1.915027,2.007858,2.100689,2.156388,2.193521,2.193521,2.267786,2.119256,2.156388,2.137822,2.026424,1.970725,1.915027,1.859328,1.747930,1.710798,1.599400,1.469436,1.339472,1.172376,1.060978,0.949580,0.801050,0.745351,0.615388,0.559689,0.522556,0.448291,0.355460,0.318327,0.169797,0.095532,0.000000,117.000000
2.468838,-0.634118,-0.578040,-0.596733,-0.615425,-0.559348,-0.615425,-0.615425,-0.690195,-0.690195,-0.708888,-0.652810,-0.671503,-0.578040,-0.521963,-0.540655,-0.540655,-0.521963,-0.578040,-0.634118,-0.615425,-0.634118,-0.634118,-0.615425,-0.652810,-0.596733,-0.578040,-0.540655,-0.559348,-0.559348,-0.596733,-0.634118,-0.652810,-0.671503,-0.671503,-0.634118,-0.634118,-0.559348,-0.540655,-0.540655,-0.596733,-0.615425,-0.596733,-0.634118,-0.652810,-0.690195,-0.671503,-0.708888,-0.596733,-0.540655,-0.484578,-0.484578,-0.503270,-0.503270,-0.465885,-0.503270,-0.559348,-0.615425,-0.615425,-0.596733,-0.540655,-0.521963,-0.484578,-0.465885,-0.447193,-0.447193,-0.465885,-0.447193,-0.372423,-0.372423,-0.372423,-0.297653,-0.204190,-0.166805,-0.110728,-0.073343,-0.092035,-0.092035,-0.017265,-0.092035,0.001427,-0.054650,-0.073343,-0.017265,-0.035958,0.020120,0.020120,-0.054650,-0.073343,-0.129420,-0.185498,-0.204190,-0.316345,-0.409808,-0.409808,-0.484578,-0.503270,-0.465885,-0.503270,-0.521963,-0.484578,-0.521963,-0.596733,-0.615425,-0.578040,-0.615425,-0.634118,-0.634118,-0.690195,-0.634118,-0.634118,-0.652810,-0.596733,-0.634118,-0.671503,-0.671503,-0.727580,-0.727580,-0.708888,-0.652810,-0.634118,-0.652810,-0.578040,-0.540655,-0.503270,-0.503270,-0.559348,-0.540655,-0.578040,-0.503270,-0.316345,-0.035958,0.337893,0.786513,1.365980,1.889371,2.300606,2.580993,2.674456,2.375376,1.851986,0.992130,0.057505,-0.877120,-1.736976,-2.596831,-3.120221,-3.307146,-3.232376,-2.858526,-2.447291,-2.054748,-1.680898,-1.531358,-1.194893,-0.989275,-0.727580,-0.578040,-0.372423,-0.335038,-0.316345,-0.391115,-0.447193,-0.428500,-0.465885,-0.428500,-0.428500,-0.335038,-0.297653,-0.222883,-0.204190,-0.204190,-0.129420,-0.166805,-0.129420,-0.148113,-0.222883,-0.204190,-0.185498,-0.222883,-0.222883,-0.148113,-0.054650,-0.129420,-0.035958,0.001427,-0.035958,-0.035958,-0.092035,-0.129420,-0.129420,-0.092035,-0.110728,-0.073343,0.020120,0.038812,0.038812,0.076197,0.057505,0.001427,0.038812,-0.017265,0.076197,0.057505,0.132275,0.207045,0.281815,0.281815,0.356585,0.356585,0.393970,0.319200,0.337893,0.375278,0.431355,0.468740,0.543510,0.580895,0.711743,0.805205,0.805205,0.861283,0.954745,0.992130,0.973438,0.992130,1.104285,1.197748,1.291210,1.384673,1.459443,1.534213,1.627676,1.665061,1.683753,1.721138,1.758523,1.795908,1.870678,1.908063,1.964141,2.020218,2.132373,2.113681,2.132373,2.225836,2.151066,2.094988,2.094988,2.038911,1.982833,1.964141,1.926756,1.945448,1.833293,1.833293,1.721138,1.627676,1.478136,1.365980,1.197748,1.066900,0.954745,0.879975,0.805205,0.674358,0.599588,0.506125,0.431355,0.375278,0.281815,0.150967,0.150967,0.020120,-0.054650,1.000000,117.000000
2.738257,-0.566103,-0.566103,-0.528765,-0.454091,-0.379416,-0.360747,-0.398085,-0.379416,-0.454091,-0.435422,-0.491428,-0.528765,-0.547434,-0.454091,-0.416753,-0.472759,-0.454091,-0.416753,-0.472759,-0.435422,-0.491428,-0.566103,-0.547434,-0.566103,-0.547434,-0.547434,-0.528765,-0.472759,-0.454091,-0.416753,-0.472759,-0.491428,-0.491428,-0.510097,-0.547434,-0.547434,-0.566103,-0.566103,-0.510097,-0.472759,-0.454091,-0.416753,-0.379416,-0.398085,-0.472759,-0.472759,-0.547434,-0.566103,-0.510097,-0.547434,-0.510097,-0.510097,-0.510097,-0.454091,-0.454091,-0.454091,-0.491428,-0.528765,-0.491428,-0.491428,-0.472759,-0.416753,-0.379416,-0.342078,-0.248735,-0.192729,-0.155391,-0.080717,-0.192729,-0.211398,-0.286072,-0.192729,-0.174060,-0.155391,-0.062048,0.049964,0.124639,0.180645,0.199314,0.217983,0.180645,0.143308,0.124639,0.049964,0.012627,-0.062048,-0.062048,-0.062048,-0.043379,-0.024711,-0.118054,-0.136723,-0.267404,-0.360747,-0.472759,-0.566103,-0.603440,-0.566103,-0.528765,-0.435422,-0.416753,-0.491428,-0.510097,-0.510097,-0.528765,-0.640778,-0.640778,-0.752790,-0.752790,-0.715452,-0.678115,-0.622109,-0.603440,-0.584772,-0.566103,-0.584772,-0.603440,-0.622109,-0.678115,-0.640778,-0.659446,-0.622109,-0.603440,-0.603440,-0.584772,-0.528765,-0.510097,-0.472759,-0.435422,-0.230066,-0.006042,0.292657,0.740706,1.226092,1.823491,2.252871,2.570238,2.588907,2.271539,1.730147,0.871387,-0.099385,-1.032820,-1.947586,-2.675666,-3.198389,-3.459751,-3.403745,-3.049040,-2.694334,-2.264954,-1.966255,-1.704893,-1.499538,-1.387526,-1.163501,-0.995483,-0.752790,-0.584772,-0.510097,-0.454091,-0.454091,-0.472759,-0.510097,-0.528765,-0.454091,-0.491428,-0.510097,-0.454091,-0.379416,-0.323410,-0.267404,-0.248735,-0.230066,-0.286072,-0.267404,-0.323410,-0.248735,-0.342078,-0.304741,-0.323410,-0.267404,-0.267404,-0.211398,-0.155391,-0.136723,-0.099385,-0.099385,-0.099385,-0.155391,-0.136723,-0.192729,-0.192729,-0.136723,-0.099385,-0.062048,0.012627,-0.006042,0.031296,0.012627,0.031296,0.012627,0.031296,-0.006042,0.012627,0.087302,0.124639,0.161976,0.236651,0.217983,0.273989,0.273989,0.199314,0.217983,0.217983,0.236651,0.311326,0.348663,0.498013,0.498013,0.554019,0.666031,0.740706,0.778043,0.796712,0.815381,0.890056,0.890056,0.908724,1.020737,1.114080,1.207424,1.338104,1.412779,1.506123,1.580797,1.636804,1.655472,1.674141,1.711478,1.730147,1.879497,1.954171,2.010178,2.103521,2.103521,2.103521,2.028846,2.028846,2.066184,1.991509,1.935503,1.954171,1.954171,1.972840,1.916834,1.935503,1.935503,1.860828,1.786153,1.655472,1.543460,1.375442,1.207424,1.114080,0.983399,0.890056,0.815381,0.722037,0.684700,0.516682,0.404669,0.329995,0.217983,1.000000,117.000000
2.775440,-0.632217,-0.597622,-0.614919,-0.545728,-0.563026,-0.580324,-0.545728,-0.580324,-0.614919,-0.666813,-0.632217,-0.597622,-0.597622,-0.528431,-0.493835,-0.493835,-0.511133,-0.511133,-0.597622,-0.666813,-0.649515,-0.666813,-0.701408,-0.666813,-0.614919,-0.614919,-0.563026,-0.459240,-0.476537,-0.528431,-0.545728,-0.563026,-0.632217,-0.632217,-0.649515,-0.701408,-0.649515,-0.649515,-0.563026,-0.563026,-0.614919,-0.563026,-0.597622,-0.597622,-0.614919,-0.597622,-0.614919,-0.597622,-0.563026,-0.528431,-0.476537,-0.493835,-0.528431,-0.528431,-0.545728,-0.545728,-0.563026,-0.545728,-0.545728,-0.528431,-0.511133,-0.511133,-0.459240,-0.424644,-0.390049,-0.407346,-0.355453,-0.320858,-0.338155,-0.390049,-0.338155,-0.303560,-0.286262,-0.182476,-0.165178,-0.078689,-0.078689,-0.026796,0.007800,0.059693,0.042395,0.025097,0.025097,-0.026796,-0.009498,0.007800,-0.026796,-0.044094,-0.009498,-0.078689,-0.147880,-0.182476,-0.303560,-0.338155,-0.441942,-0.441942,-0.511133,-0.493835,-0.424644,-0.407346,-0.407346,-0.407346,-0.493835,-0.580324,-0.580324,-0.701408,-0.666813,-0.649515,-0.666813,-0.614919,-0.563026,-0.597622,-0.563026,-0.545728,-0.545728,-0.597622,-0.597622,-0.649515,-0.649515,-0.632217,-0.614919,-0.545728,-0.563026,-0.493835,-0.441942,-0.441942,-0.476537,-0.511133,-0.441942,-0.303560,-0.165178,0.042395,0.405648,0.768901,1.287833,1.754873,2.170019,2.515974,2.429485,2.048934,1.374322,0.422946,-0.597622,-1.531700,-2.361992,-3.036605,-3.417155,-3.451751,-3.226880,-2.829032,-2.413886,-2.085228,-1.860358,-1.687380,-1.514402,-1.237638,-0.978172,-0.718706,-0.563026,-0.355453,-0.320858,-0.303560,-0.303560,-0.372751,-0.372751,-0.459240,-0.390049,-0.355453,-0.320858,-0.234369,-0.199773,-0.130582,-0.113285,-0.113285,-0.165178,-0.199773,-0.199773,-0.217071,-0.182476,-0.147880,-0.147880,-0.061391,-0.044094,-0.009498,0.007800,-0.061391,-0.061391,-0.026796,-0.061391,-0.078689,-0.078689,-0.026796,0.007800,0.059693,0.111586,0.163479,0.180777,0.163479,0.180777,0.146182,0.128884,0.128884,0.111586,0.146182,0.198075,0.249968,0.284564,0.319159,0.336457,0.388350,0.388350,0.371053,0.405648,0.440244,0.422946,0.474839,0.544030,0.578626,0.682412,0.734305,0.751603,0.786199,0.786199,0.786199,0.872687,0.889985,0.976474,1.011069,1.114856,1.149451,1.201345,1.322429,1.460811,1.460811,1.530002,1.633788,1.616491,1.685682,1.685682,1.754873,1.858659,1.927850,1.979743,2.014339,2.048934,2.066232,2.031637,1.997041,2.066232,2.066232,1.979743,1.962446,1.962446,2.031637,1.997041,1.945148,1.875957,1.789468,1.616491,1.512704,1.374322,1.235940,1.201345,1.114856,1.028367,0.959176,0.889985,0.751603,0.699710,0.595923,0.422946,0.301861,0.198075,0.146182,0.000000,117.000000
2.840295,-0.526983,-0.563386,-0.526983,-0.636192,-0.636192,-0.581588,-0.563386,-0.526983,-0.490580,-0.526983,-0.490580,-0.526983,-0.526983,-0.581588,-0.581588,-0.581588,-0.617991,-0.563386,-0.526983,-0.563386,-0.508782,-0.526983,-0.617991,-0.599789,-0.581588,-0.636192,-0.581588,-0.636192,-0.563386,-0.563386,-0.472379,-0.454177,-0.435976,-0.472379,-0.454177,-0.563386,-0.654394,-0.708998,-0.617991,-0.654394,-0.690797,-0.636192,-0.563386,-0.526983,-0.490580,-0.526983,-0.545185,-0.563386,-0.508782,-0.581588,-0.581588,-0.581588,-0.599789,-0.581588,-0.526983,-0.563386,-0.472379,-0.526983,-0.563386,-0.526983,-0.545185,-0.563386,-0.545185,-0.563386,-0.526983,-0.508782,-0.381371,-0.290364,-0.199356,-0.162953,-0.181155,-0.199356,-0.181155,-0.235759,-0.162953,-0.144752,-0.126550,-0.017341,0.128271,0.146472,0.146472,0.146472,0.091868,0.037263,0.019062,-0.090147,-0.162953,-0.199356,-0.253961,-0.217558,-0.199356,-0.181155,-0.217558,-0.290364,-0.363170,-0.454177,-0.490580,-0.545185,-0.581588,-0.654394,-0.617991,-0.526983,-0.526983,-0.545185,-0.545185,-0.617991,-0.636192,-0.654394,-0.727200,-0.690797,-0.763603,-0.727200,-0.708998,-0.690797,-0.617991,-0.563386,-0.599789,-0.563386,-0.599789,-0.599789,-0.617991,-0.672595,-0.690797,-0.708998,-0.654394,-0.636192,-0.526983,-0.472379,-0.344968,-0.253961,-0.090147,0.201077,0.565107,0.910936,1.384175,1.912019,2.348855,2.585474,2.549071,2.166840,1.620794,0.801727,-0.108349,-0.963819,-1.801089,-2.510947,-3.020590,-3.220806,-3.129799,-2.856776,-2.419940,-2.019507,-1.673678,-1.437059,-1.291446,-1.109431,-0.963819,-0.818207,-0.654394,-0.617991,-0.490580,-0.472379,-0.435976,-0.490580,-0.435976,-0.435976,-0.363170,-0.381371,-0.399573,-0.454177,-0.399573,-0.417774,-0.399573,-0.381371,-0.326767,-0.290364,-0.308565,-0.272162,-0.217558,-0.199356,-0.235759,-0.217558,-0.235759,-0.253961,-0.217558,-0.181155,-0.126550,-0.108349,-0.071946,-0.053744,-0.090147,-0.126550,-0.108349,-0.108349,-0.144752,-0.144752,-0.090147,-0.053744,0.037263,0.055465,0.091868,0.110069,0.128271,0.182875,0.164674,0.146472,0.128271,0.146472,0.164674,0.237480,0.292085,0.292085,0.383092,0.437697,0.455898,0.492301,0.510503,0.474100,0.492301,0.510503,0.583309,0.619712,0.801727,0.838130,0.892734,0.910936,1.001943,1.056548,1.092951,1.165757,1.220361,1.274966,1.329570,1.438779,1.511585,1.620794,1.730003,1.766406,1.821011,1.857414,1.857414,1.912019,1.893817,1.875616,1.912019,1.984825,2.039429,2.075832,2.094034,2.148638,2.130437,2.166840,2.094034,2.039429,2.003026,1.948422,1.930220,1.839213,1.839213,1.711802,1.620794,1.566190,1.384175,1.311369,1.147555,1.020145,0.838130,0.765324,0.619712,0.565107,0.474100,0.419495,0.401294,0.292085,1.000000,117.000000
2.951526,-0.586077,-0.568564,-0.533538,-0.498512,-0.445974,-0.445974,-0.463486,-0.498512,-0.533538,-0.603590,-0.568564,-0.568564,-0.551051,-0.533538,-0.445974,-0.480999,-0.410948,-0.428461,-0.463486,-0.445974,-0.533538,-0.533538,-0.533538,-0.603590,-0.603590,-0.586077,-0.516025,-0.551051,-0.463486,-0.516025,-0.498512,-0.480999,-0.480999,-0.533538,-0.586077,-0.568564,-0.568564,-0.533538,-0.516025,-0.480999,-0.463486,-0.480999,-0.480999,-0.463486,-0.480999,-0.498512,-0.498512,-0.498512,-0.498512,-0.480999,-0.428461,-0.445974,-0.445974,-0.428461,-0.428461,-0.445974,-0.480999,-0.480999,-0.568564,-0.568564,-0.568564,-0.516025,-0.480999,-0.498512,-0.410948,-0.410948,-0.410948,-0.288358,-0.323383,-0.305870,-0.305870,-0.270845,-0.235819,-0.183280,-0.165767,-0.113229,-0.008151,0.026874,0.096926,0.114439,0.131952,0.061900,0.044387,0.026874,0.026874,-0.008151,-0.078203,-0.008151,-0.060690,-0.060690,-0.095716,-0.113229,-0.200793,-0.253332,-0.358409,-0.480999,-0.533538,-0.498512,-0.445974,-0.428461,-0.428461,-0.480999,-0.393435,-0.445974,-0.480999,-0.586077,-0.586077,-0.656128,-0.656128,-0.673641,-0.656128,-0.568564,-0.568564,-0.568564,-0.551051,-0.533538,-0.568564,-0.638615,-0.656128,-0.586077,-0.638615,-0.568564,-0.568564,-0.498512,-0.498512,-0.480999,-0.480999,-0.498512,-0.516025,-0.375922,-0.218306,0.044387,0.412158,0.920031,1.462931,1.900753,2.286036,2.391114,2.040856,1.392879,0.447184,-0.533538,-1.531772,-2.354878,-3.037880,-3.510728,-3.510728,-3.300574,-2.897777,-2.477468,-2.109698,-1.829491,-1.636850,-1.479234,-1.251566,-1.058924,-0.866283,-0.638615,-0.551051,-0.410948,-0.358409,-0.393435,-0.428461,-0.428461,-0.428461,-0.410948,-0.375922,-0.445974,-0.393435,-0.270845,-0.270845,-0.218306,-0.130742,-0.148255,-0.200793,-0.165767,-0.218306,-0.288358,-0.270845,-0.323383,-0.253332,-0.200793,-0.165767,-0.095716,-0.025664,-0.043177,-0.078203,-0.060690,-0.025664,-0.078203,-0.130742,-0.130742,-0.148255,-0.113229,-0.060690,0.009361,0.079413,0.061900,0.131952,0.061900,0.061900,0.009361,0.009361,0.061900,0.026874,0.096926,0.131952,0.272055,0.324593,0.324593,0.359619,0.359619,0.377132,0.324593,0.324593,0.394645,0.447184,0.534748,0.622312,0.709877,0.779928,0.885006,0.920031,0.972570,0.990083,1.025109,1.042622,1.077647,1.095160,1.235263,1.287802,1.445418,1.497957,1.550495,1.620547,1.708111,1.743137,1.778163,1.813188,1.795676,1.848214,1.935779,1.988317,2.075882,2.128420,2.163446,2.145933,2.145933,2.093395,2.075882,2.040856,2.040856,2.023343,1.988317,1.900753,1.900753,1.865727,1.813188,1.673085,1.550495,1.445418,1.287802,1.200238,1.025109,0.885006,0.832467,0.779928,0.622312,0.604799,0.517235,0.447184,0.272055,0.202003,0.166977,0.000000,117.000000
2.865047,-0.758352,-0.721752,-0.740052,-0.703452,-0.685152,-0.630252,-0.611952,-0.630252,-0.611952,-0.648552,-0.666852,-0.703452,-0.648552,-0.685152,-0.666852,-0.630252,-0.593652,-0.593652,-0.538752,-0.611952,-0.630252,-0.630252,-0.648552,-0.685152,-0.685152,-0.666852,-0.721752,-0.648552,-0.557052,-0.557052,-0.538752,-0.575352,-0.538752,-0.575352,-0.611952,-0.648552,-0.666852,-0.666852,-0.630252,-0.593652,-0.593652,-0.538752,-0.483852,-0.520452,-0.575352,-0.593652,-0.593652,-0.593652,-0.575352,-0.593652,-0.648552,-0.575352,-0.557052,-0.465552,-0.447252,-0.520452,-0.520452,-0.502152,-0.538752,-0.593652,-0.538752,-0.520452,-0.538752,-0.538752,-0.410652,-0.374052,-0.374052,-0.245952,-0.264252,-0.245952,-0.227652,-0.355752,-0.245952,-0.227652,-0.154452,-0.026352,0.028548,0.083448,0.101748,0.120048,0.138348,0.046848,0.010248,-0.026352,-0.191052,-0.191052,-0.209352,-0.154452,-0.154452,-0.136152,-0.154452,-0.209352,-0.227652,-0.337452,-0.410652,-0.520452,-0.538752,-0.538752,-0.611952,-0.557052,-0.611952,-0.557052,-0.520452,-0.557052,-0.593652,-0.630252,-0.666852,-0.740052,-0.758352,-0.703452,-0.758352,-0.648552,-0.630252,-0.611952,-0.593652,-0.557052,-0.593652,-0.648552,-0.648552,-0.758352,-0.685152,-0.648552,-0.611952,-0.557052,-0.557052,-0.520452,-0.502152,-0.428952,-0.337452,-0.245952,0.010248,0.339648,0.723948,1.236348,1.821947,2.297747,2.645447,2.645447,2.407547,1.767047,0.925248,-0.026352,-0.977952,-1.819751,-2.551751,-3.045851,-3.155651,-3.009251,-2.698151,-2.258951,-1.874651,-1.600151,-1.343952,-1.179252,-1.087752,-0.831552,-0.703452,-0.575352,-0.538752,-0.465552,-0.447252,-0.447252,-0.410652,-0.410652,-0.374052,-0.447252,-0.447252,-0.355752,-0.392352,-0.374052,-0.300852,-0.300852,-0.282552,-0.245952,-0.191052,-0.172752,-0.136152,-0.245952,-0.191052,-0.227652,-0.209352,-0.245952,-0.282552,-0.154452,-0.154452,-0.136152,-0.026352,-0.081252,-0.062952,-0.136152,-0.099552,-0.136152,-0.099552,-0.099552,-0.117852,-0.026352,0.028548,0.028548,0.065148,0.065148,0.065148,-0.008052,0.065148,0.083448,0.156648,0.174948,0.193248,0.303048,0.321348,0.321348,0.412848,0.467748,0.486048,0.486048,0.486048,0.504348,0.522648,0.595848,0.595848,0.687348,0.742248,0.833748,0.906948,0.943548,1.035048,1.035048,1.035048,1.071648,1.163148,1.218048,1.291248,1.419347,1.474247,1.602347,1.657247,1.748747,1.748747,1.803647,1.840247,1.858547,1.840247,1.950047,1.913447,1.986647,2.059847,2.041547,2.078147,2.133047,2.169647,2.133047,2.133047,2.114747,2.023247,1.968347,1.913447,1.858547,1.876847,1.821947,1.693847,1.602347,1.437647,1.272948,1.144848,1.016748,0.888648,0.778848,0.742248,0.650748,0.632448,0.504348,0.376248,0.284748,0.211548,0.138348,1.000000,117.000000
3.167378,-0.511813,-0.492243,-0.570524,-0.570524,-0.550954,-0.590094,-0.570524,-0.570524,-0.492243,-0.453103,-0.531383,-0.511813,-0.492243,-0.550954,-0.570524,-0.570524,-0.590094,-0.550954,-0.590094,-0.550954,-0.492243,-0.550954,-0.550954,-0.492243,-0.511813,-0.531383,-0.570524,-0.629234,-0.609664,-0.570524,-0.550954,-0.492243,-0.492243,-0.394392,-0.433533,-0.453103,-0.472673,-0.570524,-0.609664,-0.648804,-0.629234,-0.629234,-0.570524,-0.531383,-0.511813,-0.453103,-0.492243,-0.550954,-0.550954,-0.492243,-0.531383,-0.550954,-0.550954,-0.570524,-0.511813,-0.492243,-0.492243,-0.472673,-0.531383,-0.511813,-0.531383,-0.531383,-0.511813,-0.531383,-0.511813,-0.453103,-0.394392,-0.335682,-0.198691,-0.159550,-0.218261,-0.218261,-0.218261,-0.198691,-0.198691,-0.179120,-0.159550,-0.061699,0.036151,0.094862,0.114432,0.153572,0.212283,0.251423,0.134002,0.094862,0.036151,-0.159550,-0.218261,-0.120410,-0.120410,-0.120410,-0.120410,-0.218261,-0.296541,-0.316112,-0.453103,-0.472673,-0.531383,-0.570524,-0.629234,-0.550954,-0.609664,-0.570524,-0.511813,-0.550954,-0.629234,-0.609664,-0.668375,-0.687945,-0.785796,-0.805366,-0.746655,-0.707515,-0.668375,-0.648804,-0.570524,-0.609664,-0.629234,-0.687945,-0.668375,-0.727085,-0.707515,-0.707515,-0.727085,-0.648804,-0.629234,-0.629234,-0.511813,-0.394392,-0.218261,-0.002989,0.368844,0.799388,1.249502,1.817037,2.247581,2.482423,2.384572,1.914888,1.151651,0.153572,-0.883646,-1.823015,-2.684102,-3.232067,-3.506049,-3.388628,-3.016795,-2.566681,-2.096997,-1.783874,-1.451181,-1.098918,-0.903217,-0.707515,-0.609664,-0.550954,-0.570524,-0.570524,-0.550954,-0.570524,-0.570524,-0.492243,-0.374822,-0.316112,-0.335682,-0.316112,-0.276971,-0.296541,-0.316112,-0.296541,-0.335682,-0.276971,-0.257401,-0.218261,-0.159550,-0.120410,-0.159550,-0.257401,-0.179120,-0.159550,-0.159550,-0.139980,-0.139980,-0.179120,-0.120410,-0.081270,-0.002989,-0.022559,-0.002989,-0.002989,0.016581,-0.061699,-0.100840,-0.081270,-0.081270,-0.002989,0.036151,0.075292,0.114432,0.192713,0.114432,0.212283,0.192713,0.192713,0.134002,0.212283,0.270993,0.349274,0.349274,0.427555,0.447125,0.505835,0.544976,0.584116,0.564546,0.584116,0.642827,0.642827,0.701537,0.701537,0.877669,0.955949,1.034230,1.132081,1.171221,1.269072,1.327783,1.327783,1.386493,1.445204,1.543054,1.543054,1.601765,1.758326,1.836607,1.934458,1.993168,1.993168,1.993168,1.954028,1.954028,1.973598,2.051879,2.051879,2.071449,2.071449,2.149730,2.208440,2.130160,2.130160,2.091019,1.954028,1.875747,1.738756,1.660475,1.543054,1.445204,1.366923,1.249502,1.171221,1.092941,0.995090,0.818958,0.681967,0.564546,0.427555,0.349274,0.231853,0.173143,0.134002,0.153572,0.114432,1.000000,117.000000
2.857058,-0.580543,-0.616729,-0.634821,-0.634821,-0.725285,-0.707192,-0.707192,-0.634821,-0.652914,-0.689099,-0.634821,-0.580543,-0.580543,-0.544358,-0.544358,-0.580543,-0.580543,-0.634821,-0.616729,-0.634821,-0.634821,-0.634821,-0.598636,-0.598636,-0.598636,-0.598636,-0.544358,-0.544358,-0.580543,-0.634821,-0.634821,-0.634821,-0.707192,-0.725285,-0.652914,-0.616729,-0.598636,-0.598636,-0.598636,-0.562451,-0.616729,-0.526266,-0.580543,-0.634821,-0.580543,-0.544358,-0.508173,-0.508173,-0.453895,-0.453895,-0.453895,-0.580543,-0.526266,-0.544358,-0.580543,-0.634821,-0.652914,-0.652914,-0.616729,-0.562451,-0.490080,-0.490080,-0.453895,-0.435802,-0.508173,-0.544358,-0.526266,-0.526266,-0.508173,-0.508173,-0.435802,-0.327246,-0.272969,-0.272969,-0.182505,-0.218691,-0.272969,-0.254876,-0.200598,-0.182505,-0.146320,-0.092042,-0.055857,-0.001579,0.034606,0.070792,-0.001579,-0.055857,-0.110135,-0.200598,-0.218691,-0.218691,-0.218691,-0.200598,-0.218691,-0.345339,-0.363432,-0.508173,-0.508173,-0.544358,-0.598636,-0.580543,-0.634821,-0.689099,-0.707192,-0.671007,-0.616729,-0.616729,-0.616729,-0.616729,-0.598636,-0.616729,-0.652914,-0.689099,-0.652914,-0.671007,-0.761470,-0.671007,-0.671007,-0.616729,-0.671007,-0.671007,-0.598636,-0.544358,-0.562451,-0.562451,-0.598636,-0.598636,-0.526266,-0.453895,-0.309154,-0.055857,0.161255,0.631663,1.029701,1.590573,2.060982,2.386649,2.368557,1.880055,1.138257,0.197440,-0.815748,-1.792750,-2.606919,-3.149698,-3.348717,-3.348717,-2.932586,-2.534548,-2.172696,-1.865121,-1.611824,-1.358527,-1.087137,-0.851933,-0.616729,-0.417710,-0.309154,-0.291061,-0.291061,-0.327246,-0.345339,-0.417710,-0.363432,-0.345339,-0.272969,-0.254876,-0.182505,-0.200598,-0.200598,-0.164413,-0.182505,-0.200598,-0.236783,-0.218691,-0.218691,-0.146320,-0.110135,-0.019672,-0.037764,-0.001579,0.034606,0.034606,0.034606,-0.001579,-0.037764,-0.055857,-0.073950,-0.037764,0.034606,0.034606,0.088884,0.106977,0.161255,0.161255,0.125069,0.125069,0.125069,0.106977,0.088884,0.125069,0.143162,0.251718,0.305996,0.342181,0.324089,0.324089,0.342181,0.342181,0.414552,0.450737,0.432644,0.505015,0.559293,0.649756,0.722127,0.794497,0.794497,0.848775,0.884960,0.903053,0.921146,0.975424,0.993516,1.047794,1.138257,1.156350,1.337276,1.427739,1.463925,1.554388,1.572481,1.608666,1.644851,1.662944,1.717222,1.753407,1.861963,1.916241,1.988611,2.024797,2.024797,2.042889,2.042889,2.024797,2.024797,2.024797,2.006704,2.024797,2.024797,2.042889,2.060982,1.988611,1.970519,1.843870,1.699129,1.590573,1.536295,1.427739,1.282998,1.246813,1.138257,1.065887,1.011609,0.903053,0.812590,0.758312,0.649756,0.505015,0.396459,0.305996,0.269811,0.161255,0.000000,117.000000
2.778897,-0.639468,-0.639468,-0.562651,-0.543447,-0.581855,-0.562651,-0.543447,-0.601060,-0.581855,-0.658672,-0.620264,-0.658672,-0.658672,-0.639468,-0.543447,-0.543447,-0.485834,-0.485834,-0.505038,-0.505038,-0.543447,-0.601060,-0.581855,-0.716285,-0.658672,-0.601060,-0.601060,-0.601060,-0.562651,-0.524242,-0.524242,-0.524242,-0.543447,-0.562651,-0.562651,-0.601060,-0.620264,-0.543447,-0.543447,-0.543447,-0.524242,-0.562651,-0.581855,-0.562651,-0.601060,-0.620264,-0.639468,-0.620264,-0.639468,-0.562651,-0.562651,-0.505038,-0.485834,-0.505038,-0.505038,-0.466629,-0.562651,-0.601060,-0.601060,-0.620264,-0.601060,-0.524242,-0.581855,-0.485834,-0.389812,-0.351404,-0.332199,-0.274587,-0.197769,-0.216974,-0.236178,-0.236178,-0.274587,-0.197769,-0.140156,-0.024931,0.013478,0.051887,0.071091,0.071091,0.051887,-0.005726,0.032682,-0.044135,-0.101748,-0.082544,-0.159361,-0.159361,-0.140156,-0.101748,-0.101748,-0.236178,-0.274587,-0.370608,-0.485834,-0.562651,-0.620264,-0.620264,-0.581855,-0.543447,-0.447425,-0.485834,-0.485834,-0.562651,-0.581855,-0.601060,-0.620264,-0.677877,-0.735490,-0.677877,-0.697081,-0.677877,-0.639468,-0.620264,-0.639468,-0.658672,-0.697081,-0.697081,-0.677877,-0.716285,-0.677877,-0.658672,-0.697081,-0.620264,-0.562651,-0.543447,-0.562651,-0.543447,-0.562651,-0.505038,-0.389812,-0.101748,0.263134,0.762445,1.300166,1.876295,2.394811,2.644466,2.567649,2.125950,1.280961,0.263134,-0.793102,-1.810930,-2.675123,-3.270457,-3.443295,-3.212844,-2.828758,-2.271833,-1.926156,-1.599683,-1.330823,-1.138780,-0.889124,-0.716285,-0.601060,-0.466629,-0.447425,-0.447425,-0.428221,-0.428221,-0.447425,-0.428221,-0.428221,-0.447425,-0.409017,-0.466629,-0.428221,-0.332199,-0.255382,-0.236178,-0.159361,-0.178565,-0.140156,-0.197769,-0.159361,-0.236178,-0.255382,-0.293791,-0.293791,-0.274587,-0.236178,-0.159361,-0.044135,-0.044135,-0.063339,-0.044135,-0.024931,-0.044135,-0.120952,-0.063339,-0.101748,-0.063339,0.013478,0.071091,0.013478,0.071091,0.071091,0.051887,0.109499,0.128704,0.147908,0.186317,0.167112,0.263134,0.282338,0.301542,0.397564,0.416768,0.455177,0.435972,0.359155,0.378360,0.435972,0.416768,0.512790,0.608811,0.743241,0.839263,0.954488,1.012101,1.050510,1.108123,1.127327,1.165736,1.204144,1.261757,1.300166,1.396187,1.434596,1.549822,1.645843,1.626639,1.684252,1.761069,1.818682,1.837886,1.895499,1.895499,1.953112,2.068338,2.068338,2.125950,2.221972,2.125950,2.145155,2.125950,2.049133,2.068338,1.914703,1.953112,1.914703,1.914703,1.876295,1.799477,1.761069,1.607434,1.549822,1.376983,1.300166,1.069714,1.012101,0.800854,0.666424,0.551198,0.474381,0.455177,0.474381,0.339951,0.301542,0.186317,0.109499,0.013478,1.000000,117.000000
2.831228,-0.557012,-0.557012,-0.557012,-0.519778,-0.501162,-0.445311,-0.408078,-0.426695,-0.426695,-0.426695,-0.501162,-0.519778,-0.482545,-0.557012,-0.594245,-0.557012,-0.445311,-0.482545,-0.389461,-0.408078,-0.389461,-0.445311,-0.482545,-0.501162,-0.538395,-0.557012,-0.557012,-0.482545,-0.557012,-0.519778,-0.426695,-0.463928,-0.463928,-0.408078,-0.482545,-0.482545,-0.501162,-0.482545,-0.501162,-0.519778,-0.445311,-0.408078,-0.333611,-0.426695,-0.426695,-0.445311,-0.482545,-0.426695,-0.463928,-0.538395,-0.575628,-0.501162,-0.482545,-0.463928,-0.426695,-0.389461,-0.389461,-0.389461,-0.370845,-0.408078,-0.389461,-0.445311,-0.482545,-0.482545,-0.426695,-0.408078,-0.333611,-0.221911,-0.277761,-0.240528,-0.221911,-0.184678,-0.203294,-0.184678,-0.128828,-0.054361,0.001489,0.075956,0.206273,0.169040,0.224890,0.206273,0.224890,0.131806,0.131806,0.020106,-0.054361,-0.072977,-0.091594,-0.054361,-0.035744,-0.110211,-0.072977,-0.110211,-0.277761,-0.352228,-0.426695,-0.538395,-0.575628,-0.501162,-0.445311,-0.463928,-0.408078,-0.426695,-0.519778,-0.538395,-0.612862,-0.668712,-0.705945,-0.705945,-0.743179,-0.687329,-0.650095,-0.631478,-0.575628,-0.519778,-0.612862,-0.594245,-0.687329,-0.668712,-0.650095,-0.705945,-0.705945,-0.650095,-0.612862,-0.538395,-0.482545,-0.445311,-0.389461,-0.389461,-0.259144,-0.072977,0.262123,0.653074,1.099875,1.714226,2.161026,2.458894,2.347193,1.863159,1.025408,-0.017127,-1.096896,-2.083581,-2.902716,-3.479833,-3.703234,-3.535683,-3.163349,-2.660699,-2.232514,-1.916031,-1.618163,-1.431996,-1.245829,-0.966579,-0.761795,-0.650095,-0.538395,-0.501162,-0.463928,-0.445311,-0.408078,-0.389461,-0.352228,-0.389461,-0.352228,-0.333611,-0.370845,-0.389461,-0.389461,-0.352228,-0.333611,-0.333611,-0.314995,-0.221911,-0.166061,-0.184678,-0.184678,-0.221911,-0.221911,-0.240528,-0.277761,-0.221911,-0.184678,-0.147444,-0.091594,-0.054361,-0.054361,-0.072977,-0.035744,-0.054361,-0.072977,-0.072977,-0.110211,-0.091594,-0.054361,0.001489,0.075956,0.131806,0.150423,0.131806,0.113190,0.131806,0.150423,0.169040,0.187656,0.262123,0.317973,0.392440,0.448290,0.448290,0.522757,0.541374,0.541374,0.578607,0.615840,0.671690,0.727541,0.820624,0.895091,0.988174,1.062641,1.099875,1.211575,1.248808,1.286042,1.379125,1.397742,1.509442,1.528059,1.639759,1.714226,1.807309,1.919009,1.993476,1.900393,1.937626,1.937626,1.937626,1.919009,1.974859,2.012093,2.105176,2.161026,2.198260,2.254110,2.142410,2.086560,2.049326,1.993476,1.900393,1.788692,1.658376,1.565292,1.490825,1.416358,1.360508,1.248808,1.118491,1.081258,0.913708,0.708924,0.615840,0.466907,0.392440,0.187656,0.150423,0.094573,0.075956,0.038723,-0.054361,-0.091594,-0.147444,0.000000,117.000000
2.555006,-0.631509,-0.718099,-0.718099,-0.735417,-0.718099,-0.752735,-0.700781,-0.683463,-0.666145,-0.700781,-0.666145,-0.718099,-0.718099,-0.700781,-0.683463,-0.683463,-0.752735,-0.700781,-0.752735,-0.666145,-0.614191,-0.562237,-0.614191,-0.544919,-0.666145,-0.666145,-0.683463,-0.683463,-0.683463,-0.683463,-0.648827,-0.614191,-0.614191,-0.579555,-0.510283,-0.544919,-0.579555,-0.596873,-0.579555,-0.579555,-0.614191,-0.614191,-0.614191,-0.596873,-0.596873,-0.579555,-0.579555,-0.562237,-0.527601,-0.562237,-0.631509,-0.666145,-0.648827,-0.596873,-0.579555,-0.614191,-0.510283,-0.562237,-0.527601,-0.562237,-0.510283,-0.527601,-0.527601,-0.527601,-0.596873,-0.596873,-0.475647,-0.423693,-0.319785,-0.267831,-0.146605,-0.198559,-0.163923,-0.181241,-0.215877,-0.233195,-0.198559,-0.129287,-0.094651,0.043893,0.061211,0.078529,0.061211,0.078529,0.095847,-0.060015,-0.129287,-0.146605,-0.163923,-0.163923,-0.163923,-0.129287,-0.146605,-0.163923,-0.250513,-0.302467,-0.337103,-0.423693,-0.492965,-0.579555,-0.562237,-0.579555,-0.562237,-0.544919,-0.527601,-0.527601,-0.510283,-0.631509,-0.579555,-0.666145,-0.648827,-0.648827,-0.700781,-0.614191,-0.666145,-0.596873,-0.648827,-0.579555,-0.562237,-0.579555,-0.579555,-0.579555,-0.579555,-0.596873,-0.648827,-0.579555,-0.562237,-0.527601,-0.423693,-0.319785,-0.181241,0.078529,0.476844,0.875158,1.412017,1.966193,2.433780,2.658914,2.503052,2.104737,1.360063,0.459526,-0.596873,-1.584000,-2.415265,-3.021396,-3.350438,-3.281166,-2.969442,-2.519173,-2.120859,-1.809134,-1.532046,-1.306912,-0.995188,-0.787372,-0.614191,-0.510283,-0.441011,-0.389057,-0.389057,-0.389057,-0.406375,-0.354421,-0.354421,-0.319785,-0.285149,-0.215877,-0.250513,-0.285149,-0.302467,-0.302467,-0.302467,-0.250513,-0.233195,-0.198559,-0.181241,-0.146605,-0.129287,-0.129287,-0.077333,-0.094651,-0.129287,-0.181241,-0.146605,-0.146605,-0.094651,-0.094651,-0.060015,0.026575,0.078529,0.078529,0.113165,0.026575,0.026575,0.026575,0.026575,0.043893,0.078529,0.095847,0.095847,0.165119,0.217073,0.217073,0.251710,0.251710,0.251710,0.286346,0.251710,0.303664,0.355618,0.407572,0.528798,0.546116,0.546116,0.632706,0.615388,0.615388,0.598070,0.580752,0.701978,0.771250,0.840522,0.944430,1.048338,1.134928,1.204200,1.238836,1.290791,1.360063,1.394699,1.429335,1.481289,1.550561,1.602515,1.689105,1.741059,1.844967,1.914239,1.914239,1.966193,2.000829,2.035465,2.052783,2.035465,2.070101,2.070101,2.122055,2.122055,2.139373,2.104737,2.070101,2.035465,1.931557,1.862285,1.775695,1.671787,1.567879,1.463971,1.446653,1.308109,1.256154,1.100292,1.031020,0.875158,0.771250,0.650024,0.476844,0.390254,0.320982,0.234391,0.234391,0.199755,0.130483,1.000000,117.000000
