1.122936,-0.565327,-0.565327,-0.629642,-0.629642,-0.645720,-0.581406,-0.581406,-0.517091,-0.533170,-0.484934,-0.517091,-0.565327,-0.581406,-0.581406,-0.629642,-0.661799,-0.613563,-0.549248,-0.565327,-0.533170,-0.533170,-0.517091,-0.533170,-0.565327,-0.597484,-0.645720,-0.710035,-0.661799,-0.677878,-0.661799,-0.581406,-0.549248,-0.549248,-0.549248,-0.581406,-0.565327,-0.629642,-0.597484,-0.693957,-0.677878,-0.677878,-0.645720,-0.597484,-0.549248,-0.565327,-0.565327,-0.517091,-0.581406,-0.597484,-0.661799,-0.742193,-0.677878,-0.726114,-0.710035,-0.597484,-0.661799,-0.645720,-0.549248,-0.645720,-0.597484,-0.661799,-0.661799,-0.710035,-0.693957,-0.710035,-0.629642,-0.645720,-0.613563,-0.565327,-0.517091,-0.581406,-0.597484,-0.597484,-0.645720,-0.661799,-0.581406,-0.533170,-0.468855,-0.420619,-0.324147,-0.275910,-0.211596,-0.163360,-0.131202,-0.131202,-0.050809,-0.034730,-0.018651,-0.034730,-0.034730,-0.018651,-0.002573,0.013506,0.013506,-0.082966,-0.099045,-0.211596,-0.259832,-0.388461,-0.452776,-0.468855,-0.452776,-0.501012,-0.484934,-0.404540,-0.436697,-0.420619,-0.517091,-0.533170,-0.629642,-0.629642,-0.661799,-0.645720,-0.613563,-0.581406,-0.549248,-0.549248,-0.517091,-0.597484,-0.597484,-0.645720,-0.693957,-0.677878,-0.758271,-0.726114,-0.629642,-0.645720,-0.597484,-0.484934,-0.243753,0.206450,0.817441,1.508825,2.312760,3.132773,3.984944,4.612013,4.949666,4.901430,4.354754,3.438269,2.344917,0.929992,-0.243753,-1.208475,-1.658678,-1.642600,-1.401419,-1.063767,-0.758271,-0.581406,-0.533170,-0.468855,-0.436697,-0.404540,-0.452776,-0.452776,-0.452776,-0.452776,-0.501012,-0.484934,-0.452776,-0.436697,-0.404540,-0.324147,-0.356304,-0.324147,-0.372383,-0.388461,-0.436697,-0.452776,-0.468855,-0.436697,-0.404540,-0.340225,-0.275910,-0.275910,-0.291989,-0.275910,-0.308068,-0.275910,-0.324147,-0.308068,-0.308068,-0.275910,-0.324147,-0.227674,-0.195517,-0.131202,-0.147281,-0.115123,-0.163360,-0.211596,-0.179438,-0.211596,-0.163360,-0.179438,-0.099045,-0.050809,-0.002573,0.045663,0.045663,0.109978,0.142136,0.077821,0.077821,0.077821,0.158214,0.190372,0.270765,0.351159,0.431552,0.560182,0.544103,0.608418,0.672733,0.672733,0.688811,0.688811,0.737047,0.849598,0.913913,1.010385,1.090779,1.187251,1.299802,1.283723,1.348038,1.331959,1.412353,1.348038,1.380195,1.444510,1.524904,1.589218,1.653533,1.717848,1.717848,1.750005,1.717848,1.733927,1.685691,1.669612,1.653533,1.557061,1.524904,1.573140,1.524904,1.492746,1.364117,1.219408,1.122936,1.010385,0.849598,0.720969,0.576261,0.479788,0.399395,0.319001,0.222529,0.158214,0.077821,-0.066887,-0.163360,-0.259832,-0.324147,-0.436697,-0.468855,-0.468855,-0.565327,-0.452776,-0.517091,-0.484934,-0.533170,1.000000,117.000000
1.540795,-0.730065,-0.713118,-0.713118,-0.713118,-0.645331,-0.645331,-0.611438,-0.560597,-0.560597,-0.611438,-0.560597,-0.560597,-0.560597,-0.560597,-0.611438,-0.577544,-0.509757,-0.458917,-0.441970,-0.425024,-0.458917,-0.475864,-0.543651,-0.543651,-0.543651,-0.560597,-0.560597,-0.645331,-0.526704,-0.526704,-0.475864,-0.441970,-0.492811,-0.526704,-0.543651,-0.560597,-0.594491,-0.628384,-0.577544,-0.645331,-0.509757,-0.509757,-0.458917,-0.509757,-0.509757,-0.526704,-0.543651,-0.577544,-0.628384,-0.628384,-0.543651,-0.560597,-0.526704,-0.509757,-0.492811,-0.475864,-0.492811,-0.543651,-0.594491,-0.577544,-0.611438,-0.611438,-0.594491,-0.560597,-0.577544,-0.543651,-0.492811,-0.475864,-0.509757,-0.509757,-0.543651,-0.509757,-0.509757,-0.475864,-0.458917,-0.391130,-0.340290,-0.238610,-0.170823,-0.119983,-0.035249,-0.035249,0.015591,0.032538,-0.052196,-0.086089,-0.069143,-0.052196,-0.086089,-0.018302,-0.018302,-0.035249,-0.170823,-0.204716,-0.238610,-0.374183,-0.441970,-0.560597,-0.543651,-0.611438,-0.543651,-0.560597,-0.560597,-0.526704,-0.577544,-0.560597,-0.662278,-0.645331,-0.730065,-0.730065,-0.763958,-0.696171,-0.747011,-0.645331,-0.611438,-0.662278,-0.577544,-0.628384,-0.594491,-0.611438,-0.679224,-0.696171,-0.696171,-0.628384,-0.611438,-0.611438,-0.611438,-0.526704,-0.425024,-0.136929,0.252845,0.862927,1.659422,2.489812,3.404934,4.252270,4.845405,5.133499,4.947085,4.320057,3.269361,1.896677,0.490099,-0.696171,-1.492667,-1.763814,-1.645187,-1.306253,-0.984265,-0.797851,-0.560597,-0.543651,-0.526704,-0.509757,-0.475864,-0.458917,-0.441970,-0.458917,-0.492811,-0.509757,-0.475864,-0.408077,-0.425024,-0.374183,-0.441970,-0.357237,-0.441970,-0.408077,-0.458917,-0.441970,-0.391130,-0.458917,-0.374183,-0.391130,-0.289450,-0.306397,-0.289450,-0.340290,-0.374183,-0.374183,-0.374183,-0.391130,-0.340290,-0.272503,-0.272503,-0.221663,-0.221663,-0.136929,-0.204716,-0.170823,-0.153876,-0.272503,-0.255556,-0.272503,-0.119983,-0.136929,-0.052196,-0.052196,-0.069143,-0.018302,-0.001356,-0.001356,0.015591,-0.052196,-0.052196,0.015591,-0.018302,0.049484,0.134218,0.202005,0.269792,0.303685,0.320632,0.303685,0.303685,0.337579,0.371472,0.422312,0.473152,0.540939,0.676513,0.778193,0.845980,0.930714,0.981554,1.015447,1.066287,1.100181,1.134074,1.184914,1.252701,1.286595,1.422168,1.456062,1.523849,1.574689,1.642476,1.591636,1.591636,1.608582,1.557742,1.591636,1.574689,1.591636,1.659422,1.659422,1.727209,1.642476,1.540795,1.489955,1.371328,1.286595,1.151021,1.049341,0.930714,0.879874,0.761247,0.710406,0.591779,0.473152,0.388419,0.235898,0.100325,-0.001356,-0.069143,-0.204716,-0.323343,-0.391130,-0.357237,-0.475864,-0.492811,-0.458917,-0.577544,-0.628384,1.000000,117.000000
1.330189,-0.801320,-0.830519,-0.859717,-0.903515,-0.888916,-0.830519,-0.888916,-0.830519,-0.815919,-0.772121,-0.728323,-0.757522,-0.772121,-0.801320,-0.874317,-0.859717,-0.859717,-0.815919,-0.757522,-0.757522,-0.728323,-0.742922,-0.757522,-0.757522,-0.786720,-0.713724,-0.772121,-0.772121,-0.742922,-0.684525,-0.728323,-0.669925,-0.655326,-0.655326,-0.626127,-0.699124,-0.713724,-0.699124,-0.742922,-0.742922,-0.801320,-0.728323,-0.742922,-0.684525,-0.669925,-0.640727,-0.640727,-0.655326,-0.684525,-0.699124,-0.742922,-0.699124,-0.728323,-0.669925,-0.684525,-0.626127,-0.626127,-0.640727,-0.626127,-0.640727,-0.669925,-0.684525,-0.684525,-0.699124,-0.684525,-0.655326,-0.611528,-0.640727,-0.596929,-0.582329,-0.640727,-0.640727,-0.626127,-0.640727,-0.626127,-0.596929,-0.567730,-0.494733,-0.421736,-0.407137,-0.334140,-0.304941,-0.246544,-0.246544,-0.188146,-0.144348,-0.144348,-0.188146,-0.202745,-0.217345,-0.202745,-0.202745,-0.158947,-0.158947,-0.261143,-0.261143,-0.290342,-0.392537,-0.450935,-0.494733,-0.509332,-0.523932,-0.509332,-0.509332,-0.509332,-0.494733,-0.509332,-0.509332,-0.567730,-0.655326,-0.640727,-0.669925,-0.669925,-0.684525,-0.640727,-0.626127,-0.596929,-0.567730,-0.553130,-0.596929,-0.567730,-0.611528,-0.596929,-0.596929,-0.655326,-0.596929,-0.582329,-0.523932,-0.377938,-0.115149,0.322832,0.863009,1.534580,2.220750,2.965318,3.563893,4.031073,4.089470,3.651489,2.906921,1.826567,0.644018,-0.596929,-1.618885,-2.159061,-2.275856,-1.954670,-1.589686,-1.268500,-1.005711,-0.859717,-0.757522,-0.655326,-0.626127,-0.494733,-0.465534,-0.436335,-0.392537,-0.392537,-0.407137,-0.377938,-0.363339,-0.348739,-0.319540,-0.319540,-0.319540,-0.319540,-0.304941,-0.304941,-0.304941,-0.304941,-0.261143,-0.231944,-0.188146,-0.144348,-0.129749,-0.115149,-0.085950,-0.100550,-0.144348,-0.129749,-0.158947,-0.144348,-0.144348,-0.129749,-0.085950,-0.042152,0.030844,0.030844,0.045444,0.060043,0.045444,0.045444,-0.027553,0.060043,0.030844,0.074643,0.089242,0.162239,0.206037,0.249835,0.249835,0.249835,0.279034,0.308233,0.293633,0.322832,0.352031,0.366630,0.425028,0.483425,0.527223,0.658618,0.687816,0.673217,0.717015,0.775413,0.790012,0.877608,0.877608,0.994403,1.081999,1.111198,1.184195,1.227993,1.315589,1.359387,1.388586,1.432384,1.446984,1.534580,1.549179,1.636776,1.738971,1.797369,1.811968,1.928763,1.943362,1.987160,1.943362,1.914164,1.899564,1.943362,1.943362,1.957962,1.928763,1.957962,1.899564,1.914164,1.782769,1.680574,1.578378,1.476182,1.300990,1.198794,1.067400,0.950605,0.863009,0.790012,0.658618,0.585621,0.439627,0.308233,0.220636,0.118441,0.001646,-0.042152,-0.129749,-0.188146,-0.202745,-0.217345,-0.217345,-0.231944,-0.290342,1.000000,117.000000
1.265932,-0.748610,-0.794744,-0.825501,-0.779366,-0.810122,-0.825501,-0.825501,-0.825501,-0.794744,-0.779366,-0.748610,-0.733232,-0.702475,-0.748610,-0.794744,-0.840879,-0.794744,-0.810122,-0.810122,-0.763988,-0.810122,-0.733232,-0.717853,-0.687097,-0.671719,-0.702475,-0.748610,-0.748610,-0.810122,-0.779366,-0.794744,-0.763988,-0.733232,-0.687097,-0.656341,-0.640962,-0.656341,-0.656341,-0.687097,-0.733232,-0.733232,-0.748610,-0.717853,-0.717853,-0.656341,-0.671719,-0.687097,-0.640962,-0.656341,-0.610206,-0.671719,-0.702475,-0.717853,-0.794744,-0.810122,-0.810122,-0.717853,-0.733232,-0.671719,-0.610206,-0.625584,-0.671719,-0.625584,-0.671719,-0.656341,-0.717853,-0.687097,-0.640962,-0.625584,-0.594828,-0.625584,-0.548693,-0.564072,-0.564072,-0.487181,-0.456424,-0.471803,-0.364155,-0.394912,-0.333399,-0.241130,-0.148861,-0.102726,-0.041214,-0.025835,-0.102726,-0.102726,-0.133483,-0.133483,-0.210373,-0.194995,-0.241130,-0.210373,-0.210373,-0.271886,-0.318021,-0.379533,-0.425668,-0.533315,-0.517937,-0.594828,-0.610206,-0.625584,-0.564072,-0.533315,-0.548693,-0.548693,-0.487181,-0.548693,-0.594828,-0.594828,-0.610206,-0.702475,-0.656341,-0.640962,-0.610206,-0.640962,-0.579450,-0.579450,-0.533315,-0.579450,-0.579450,-0.594828,-0.579450,-0.656341,-0.702475,-0.687097,-0.625584,-0.410290,-0.056592,0.450888,1.127528,1.819546,2.619211,3.388120,4.095517,4.633753,4.849047,4.572240,3.864844,2.896019,1.696521,0.527779,-0.502559,-1.225333,-1.379115,-1.256090,-0.994661,-0.779366,-0.594828,-0.517937,-0.517937,-0.517937,-0.502559,-0.441046,-0.394912,-0.394912,-0.410290,-0.487181,-0.517937,-0.548693,-0.502559,-0.533315,-0.502559,-0.517937,-0.456424,-0.394912,-0.364155,-0.364155,-0.348777,-0.333399,-0.348777,-0.348777,-0.318021,-0.379533,-0.348777,-0.287264,-0.241130,-0.225752,-0.164239,-0.164239,-0.194995,-0.164239,-0.225752,-0.210373,-0.194995,-0.241130,-0.179617,-0.148861,-0.118104,-0.056592,-0.041214,-0.010457,-0.010457,-0.056592,-0.056592,-0.056592,-0.041214,-0.041214,-0.010457,0.051056,0.066434,0.127946,0.189459,0.189459,0.204837,0.174081,0.174081,0.189459,0.250972,0.235594,0.312485,0.358619,0.420132,0.497023,0.527779,0.573914,0.527779,0.589292,0.620048,0.650805,0.666183,0.666183,0.743074,0.850721,0.912234,1.019881,1.050637,1.112150,1.158284,1.189041,1.250553,1.250553,1.296688,1.373579,1.404335,1.450470,1.573495,1.619630,1.650386,1.681142,1.711899,1.650386,1.650386,1.635008,1.681142,1.665764,1.711899,1.665764,1.650386,1.650386,1.604252,1.496604,1.465848,1.312066,1.204419,1.050637,1.004503,0.881477,0.804586,0.727695,0.650805,0.543157,0.512401,0.389375,0.235594,0.189459,0.066434,-0.025835,-0.056592,-0.148861,-0.194995,-0.210373,-0.241130,1.000000,117.000000
1.567075,-0.729404,-0.697060,-0.697060,-0.680887,-0.713232,-0.600025,-0.697060,-0.680887,-0.697060,-0.697060,-0.745577,-0.777921,-0.777921,-0.794094,-0.761749,-0.729404,-0.632370,-0.648542,-0.632370,-0.648542,-0.680887,-0.680887,-0.680887,-0.745577,-0.697060,-0.680887,-0.713232,-0.648542,-0.664715,-0.616198,-0.583853,-0.616198,-0.616198,-0.600025,-0.632370,-0.697060,-0.664715,-0.680887,-0.697060,-0.616198,-0.567680,-0.583853,-0.551508,-0.567680,-0.551508,-0.616198,-0.600025,-0.680887,-0.648542,-0.632370,-0.632370,-0.632370,-0.583853,-0.600025,-0.583853,-0.632370,-0.600025,-0.600025,-0.648542,-0.616198,-0.680887,-0.680887,-0.648542,-0.680887,-0.567680,-0.535336,-0.551508,-0.567680,-0.567680,-0.583853,-0.600025,-0.583853,-0.502991,-0.551508,-0.535336,-0.438301,-0.357439,-0.276577,-0.260405,-0.244233,-0.195715,-0.114853,-0.114853,-0.098681,-0.098681,-0.147198,-0.114853,-0.066336,-0.066336,-0.098681,-0.066336,-0.066336,-0.147198,-0.195715,-0.276577,-0.357439,-0.438301,-0.502991,-0.535336,-0.502991,-0.486818,-0.519163,-0.486818,-0.502991,-0.519163,-0.551508,-0.616198,-0.616198,-0.632370,-0.664715,-0.648542,-0.616198,-0.567680,-0.583853,-0.535336,-0.551508,-0.600025,-0.600025,-0.680887,-0.648542,-0.680887,-0.648542,-0.600025,-0.583853,-0.616198,-0.616198,-0.600025,-0.535336,-0.341267,-0.050164,0.435008,1.033386,1.728799,2.537419,3.394556,4.073796,4.558968,4.704520,4.397244,3.669486,2.585936,1.356834,0.095388,-0.971990,-1.651231,-1.829127,-1.635058,-1.295438,-0.907301,-0.777921,-0.616198,-0.567680,-0.519163,-0.519163,-0.502991,-0.519163,-0.519163,-0.502991,-0.551508,-0.502991,-0.486818,-0.470646,-0.454474,-0.454474,-0.454474,-0.454474,-0.454474,-0.486818,-0.454474,-0.438301,-0.422129,-0.357439,-0.292750,-0.292750,-0.244233,-0.308922,-0.276577,-0.292750,-0.373612,-0.373612,-0.341267,-0.357439,-0.325094,-0.260405,-0.163371,-0.195715,-0.114853,-0.082509,-0.098681,-0.098681,-0.163371,-0.147198,-0.179543,-0.147198,-0.195715,-0.050164,-0.017819,-0.033991,0.063043,-0.017819,0.030698,0.030698,0.063043,-0.017819,0.030698,0.014526,0.079215,0.127732,0.208594,0.289456,0.370318,0.370318,0.370318,0.435008,0.402663,0.451180,0.515870,0.532042,0.580559,0.661421,0.758456,0.806973,0.920180,0.936352,1.017214,1.081904,1.081904,1.114248,1.114248,1.227455,1.275972,1.340662,1.453869,1.518558,1.583248,1.712627,1.744972,1.728799,1.728799,1.809661,1.809661,1.825834,1.858179,1.922868,1.890523,1.922868,1.922868,1.858179,1.809661,1.744972,1.567075,1.470041,1.356834,1.259800,1.178938,1.033386,0.968697,0.855490,0.726111,0.564387,0.499698,0.321801,0.176250,0.063043,-0.017819,-0.114853,-0.195715,-0.260405,-0.228060,-0.244233,-0.260405,-0.211888,-0.292750,-0.357439,1.000000,117.000000
1.452329,-0.585933,-0.617052,-0.648170,-0.663729,-0.694848,-0.710407,-0.710407,-0.788203,-0.757085,-0.741526,-0.725966,-0.710407,-0.648170,-0.632611,-0.632611,-0.617052,-0.694848,-0.710407,-0.772644,-0.757085,-0.757085,-0.725966,-0.710407,-0.694848,-0.663729,-0.617052,-0.663729,-0.632611,-0.648170,-0.601492,-0.663729,-0.710407,-0.679289,-0.663729,-0.648170,-0.601492,-0.570374,-0.585933,-0.570374,-0.508137,-0.539255,-0.648170,-0.601492,-0.570374,-0.585933,-0.632611,-0.570374,-0.570374,-0.508137,-0.508137,-0.523696,-0.508137,-0.539255,-0.523696,-0.601492,-0.648170,-0.617052,-0.632611,-0.570374,-0.554815,-0.492578,-0.477018,-0.445900,-0.508137,-0.477018,-0.570374,-0.554815,-0.648170,-0.663729,-0.663729,-0.617052,-0.554815,-0.492578,-0.368104,-0.368104,-0.383663,-0.305867,-0.305867,-0.290307,-0.274748,-0.228070,-0.134715,-0.103596,-0.072478,-0.010241,-0.025800,-0.041359,-0.072478,-0.150274,-0.072478,-0.196952,-0.196952,-0.259189,-0.259189,-0.336985,-0.290307,-0.305867,-0.383663,-0.430341,-0.445900,-0.508137,-0.554815,-0.554815,-0.601492,-0.585933,-0.585933,-0.601492,-0.585933,-0.570374,-0.508137,-0.523696,-0.477018,-0.523696,-0.539255,-0.601492,-0.617052,-0.632611,-0.617052,-0.601492,-0.539255,-0.461459,-0.477018,-0.414781,-0.508137,-0.508137,-0.523696,-0.570374,-0.461459,-0.305867,0.005318,0.518774,1.218940,1.981343,2.790424,3.568387,4.206316,4.626416,4.657534,4.361909,3.615065,2.557036,1.265618,-0.103596,-1.301659,-2.110740,-2.313010,-2.048503,-1.643962,-1.301659,-1.052711,-0.990474,-0.912677,-0.834881,-0.725966,-0.585933,-0.508137,-0.477018,-0.414781,-0.430341,-0.430341,-0.492578,-0.492578,-0.492578,-0.523696,-0.492578,-0.445900,-0.477018,-0.368104,-0.368104,-0.305867,-0.305867,-0.336985,-0.321426,-0.336985,-0.368104,-0.352544,-0.336985,-0.321426,-0.290307,-0.259189,-0.259189,-0.196952,-0.243630,-0.181393,-0.150274,-0.165833,-0.228070,-0.212511,-0.243630,-0.134715,-0.150274,-0.134715,-0.056919,-0.010241,0.005318,0.020878,-0.010241,0.005318,-0.010241,0.005318,0.020878,0.067555,0.083115,0.145352,0.207589,0.238707,0.223148,0.238707,0.316503,0.285385,0.347622,0.332063,0.347622,0.409859,0.487655,0.596570,0.643248,0.689925,0.736603,0.814399,0.814399,0.845518,0.861077,0.861077,0.892196,0.985551,1.047788,1.172262,1.172262,1.358973,1.343414,1.405651,1.374532,1.452329,1.467888,1.436769,1.499006,1.545684,1.576803,1.607921,1.670158,1.701277,1.747955,1.732395,1.685717,1.670158,1.639040,1.561243,1.545684,1.530125,1.483447,1.467888,1.390092,1.281177,1.187821,1.063347,0.985551,0.845518,0.736603,0.565451,0.456537,0.363181,0.285385,0.254266,0.176470,0.067555,-0.041359,-0.072478,-0.134715,-0.305867,-0.352544,-0.477018,-0.477018,-0.554815,1.000000,117.000000
1.446820,-0.770434,-0.785620,-0.755247,-0.724874,-0.709687,-0.679314,-0.709687,-0.740060,-0.740060,-0.755247,-0.800807,-0.831180,-0.755247,-0.800807,-0.770434,-0.724874,-0.724874,-0.724874,-0.740060,-0.740060,-0.740060,-0.815994,-0.861554,-0.815994,-0.800807,-0.876740,-0.800807,-0.770434,-0.755247,-0.740060,-0.755247,-0.694500,-0.755247,-0.770434,-0.815994,-0.770434,-0.740060,-0.724874,-0.694500,-0.648940,-0.648940,-0.664127,-0.648940,-0.694500,-0.740060,-0.740060,-0.770434,-0.724874,-0.724874,-0.679314,-0.664127,-0.618567,-0.618567,-0.618567,-0.648940,-0.618567,-0.694500,-0.679314,-0.694500,-0.694500,-0.679314,-0.618567,-0.588194,-0.557820,-0.527447,-0.542634,-0.527447,-0.588194,-0.603380,-0.664127,-0.724874,-0.724874,-0.664127,-0.588194,-0.497074,-0.451514,-0.360394,-0.330020,-0.330020,-0.314834,-0.314834,-0.284460,-0.254087,-0.193340,-0.178153,-0.162967,-0.117407,-0.117407,-0.087033,-0.071847,-0.147780,-0.132593,-0.193340,-0.254087,-0.330020,-0.375580,-0.436327,-0.405954,-0.436327,-0.497074,-0.466700,-0.497074,-0.573007,-0.618567,-0.603380,-0.603380,-0.679314,-0.664127,-0.664127,-0.664127,-0.618567,-0.618567,-0.573007,-0.618567,-0.618567,-0.633754,-0.679314,-0.679314,-0.694500,-0.694500,-0.709687,-0.603380,-0.588194,-0.573007,-0.512260,-0.512260,-0.588194,-0.588194,-0.497074,-0.360394,0.019273,0.611554,1.370887,2.251714,3.147728,3.952621,4.544902,4.894195,4.636022,3.982995,2.965488,1.841674,0.596367,-0.466700,-1.165287,-1.438647,-1.241221,-0.967860,-0.648940,-0.497074,-0.466700,-0.390767,-0.436327,-0.451514,-0.451514,-0.481887,-0.527447,-0.436327,-0.451514,-0.421140,-0.436327,-0.421140,-0.421140,-0.451514,-0.390767,-0.481887,-0.466700,-0.481887,-0.421140,-0.405954,-0.390767,-0.360394,-0.299647,-0.208527,-0.284460,-0.314834,-0.299647,-0.299647,-0.330020,-0.314834,-0.345207,-0.269274,-0.208527,-0.147780,-0.132593,-0.147780,-0.102220,-0.117407,-0.147780,-0.208527,-0.162967,-0.193340,-0.147780,-0.087033,-0.011100,0.019273,0.034460,0.034460,0.064833,0.064833,0.049647,0.049647,0.064833,0.064833,0.110393,0.171140,0.247073,0.231887,0.323007,0.353380,0.414127,0.383753,0.429313,0.459687,0.444500,0.459687,0.581180,0.611554,0.672300,0.763420,0.793794,0.854540,0.915287,0.976034,1.006407,1.021594,1.082340,1.067154,1.143087,1.219020,1.310140,1.386074,1.477194,1.522754,1.553127,1.568314,1.613874,1.613874,1.568314,1.553127,1.629061,1.674621,1.689807,1.826487,1.902421,1.872047,1.780927,1.765741,1.674621,1.644247,1.522754,1.446820,1.355700,1.310140,1.203834,1.112714,1.082340,0.945660,0.839354,0.748234,0.565993,0.444500,0.338193,0.247073,0.140767,0.095207,0.064833,0.019273,0.019273,-0.056660,-0.117407,-0.193340,-0.254087,-0.314834,1.000000,117.000000
1.273700,-0.720815,-0.736157,-0.797527,-0.751500,-0.797527,-0.782184,-0.751500,-0.736157,-0.736157,-0.705472,-0.705472,-0.690130,-0.674787,-0.720815,-0.782184,-0.782184,-0.797527,-0.782184,-0.736157,-0.705472,-0.690130,-0.690130,-0.674787,-0.613418,-0.644103,-0.644103,-0.705472,-0.736157,-0.751500,-0.705472,-0.690130,-0.705472,-0.644103,-0.628760,-0.659445,-0.674787,-0.674787,-0.705472,-0.751500,-0.705472,-0.690130,-0.720815,-0.690130,-0.628760,-0.644103,-0.613418,-0.598075,-0.644103,-0.644103,-0.659445,-0.690130,-0.720815,-0.705472,-0.659445,-0.644103,-0.644103,-0.598075,-0.628760,-0.582733,-0.567391,-0.598075,-0.598075,-0.644103,-0.705472,-0.720815,-0.644103,-0.628760,-0.644103,-0.628760,-0.628760,-0.582733,-0.598075,-0.567391,-0.552048,-0.536706,-0.536706,-0.521363,-0.459994,-0.383282,-0.352597,-0.306569,-0.199172,-0.122460,-0.076433,-0.076433,-0.061091,-0.137803,-0.168488,-0.168488,-0.168488,-0.214515,-0.122460,-0.122460,-0.137803,-0.107118,-0.229857,-0.321912,-0.383282,-0.459994,-0.490678,-0.567391,-0.598075,-0.552048,-0.536706,-0.536706,-0.506021,-0.536706,-0.567391,-0.582733,-0.613418,-0.628760,-0.674787,-0.705472,-0.705472,-0.690130,-0.674787,-0.644103,-0.613418,-0.644103,-0.659445,-0.628760,-0.705472,-0.720815,-0.674787,-0.674787,-0.659445,-0.628760,-0.582733,-0.475336,-0.291227,0.015621,0.506579,1.135618,1.887396,2.685202,3.436981,3.989308,4.342183,4.296156,3.774514,2.930681,1.749315,0.429867,-0.782184,-1.672045,-1.994235,-1.917523,-1.595333,-1.257799,-1.012321,-0.828212,-0.674787,-0.582733,-0.490678,-0.459994,-0.444651,-0.429309,-0.429309,-0.490678,-0.490678,-0.536706,-0.506021,-0.521363,-0.444651,-0.352597,-0.337254,-0.275885,-0.337254,-0.337254,-0.367939,-0.337254,-0.383282,-0.352597,-0.306569,-0.367939,-0.275885,-0.275885,-0.214515,-0.214515,-0.199172,-0.214515,-0.260542,-0.275885,-0.275885,-0.214515,-0.214515,-0.199172,-0.137803,-0.137803,-0.122460,-0.061091,-0.091776,-0.076433,-0.076433,-0.045748,-0.107118,-0.137803,-0.045748,-0.015063,0.046306,0.030964,0.092333,0.153703,0.245758,0.184388,0.230415,0.215073,0.184388,0.230415,0.261100,0.322470,0.399182,0.491236,0.537264,0.660003,0.690688,0.736715,0.736715,0.798085,0.798085,0.828770,0.936166,0.997536,1.104933,1.181645,1.289042,1.350412,1.427124,1.457809,1.488494,1.519178,1.534521,1.626575,1.657260,1.749315,1.764657,1.826027,1.902739,1.887396,1.872054,1.887396,1.887396,1.856712,1.872054,1.810684,1.779999,1.856712,1.795342,1.764657,1.764657,1.687945,1.595890,1.488494,1.365754,1.196988,1.089591,0.982194,0.890139,0.782742,0.690688,0.629318,0.537264,0.414524,0.276442,0.169046,0.030964,0.030964,-0.122460,-0.122460,-0.199172,-0.214515,-0.229857,-0.260542,-0.229857,1.000000,117.000000
1.126413,-0.658183,-0.673307,-0.612812,-0.658183,-0.612812,-0.643060,-0.627936,-0.643060,-0.658183,-0.658183,-0.673307,-0.718678,-0.658183,-0.688431,-0.643060,-0.582565,-0.567441,-0.567441,-0.597689,-0.597689,-0.597689,-0.627936,-0.643060,-0.643060,-0.658183,-0.643060,-0.597689,-0.612812,-0.582565,-0.612812,-0.612812,-0.643060,-0.673307,-0.643060,-0.688431,-0.627936,-0.658183,-0.612812,-0.627936,-0.643060,-0.522070,-0.612812,-0.567441,-0.582565,-0.658183,-0.643060,-0.688431,-0.688431,-0.612812,-0.627936,-0.597689,-0.612812,-0.597689,-0.597689,-0.597689,-0.597689,-0.643060,-0.658183,-0.658183,-0.643060,-0.673307,-0.597689,-0.597689,-0.552317,-0.582565,-0.537194,-0.582565,-0.627936,-0.658183,-0.643060,-0.597689,-0.627936,-0.552317,-0.491823,-0.476699,-0.370833,-0.295215,-0.264967,-0.280091,-0.204472,-0.159101,-0.128854,-0.143978,-0.143978,-0.128854,-0.113730,-0.098607,-0.143978,-0.113730,-0.159101,-0.174225,-0.219596,-0.295215,-0.385957,-0.491823,-0.522070,-0.491823,-0.491823,-0.491823,-0.476699,-0.461575,-0.446452,-0.461575,-0.522070,-0.537194,-0.597689,-0.597689,-0.643060,-0.597689,-0.612812,-0.582565,-0.537194,-0.552317,-0.552317,-0.552317,-0.612812,-0.612812,-0.597689,-0.627936,-0.658183,-0.597689,-0.552317,-0.537194,-0.491823,-0.476699,-0.491823,-0.537194,-0.506946,-0.370833,-0.022988,0.476094,1.126413,1.882598,2.774896,3.606700,4.317513,4.771224,4.846843,4.529245,3.788184,2.714401,1.413763,0.113125,-1.006028,-1.686595,-1.852956,-1.701719,-1.308502,-1.051399,-0.824544,-0.764049,-0.703554,-0.658183,-0.643060,-0.552317,-0.506946,-0.537194,-0.431328,-0.431328,-0.370833,-0.385957,-0.385957,-0.385957,-0.340586,-0.370833,-0.401080,-0.446452,-0.446452,-0.416204,-0.340586,-0.370833,-0.295215,-0.249843,-0.295215,-0.310338,-0.295215,-0.280091,-0.325462,-0.325462,-0.249843,-0.234720,-0.204472,-0.204472,-0.128854,-0.113730,-0.113730,-0.128854,-0.159101,-0.189349,-0.189349,-0.143978,-0.189349,-0.174225,-0.083483,-0.038112,0.007259,0.022383,0.037507,0.007259,0.037507,0.037507,0.067754,0.037507,0.067754,0.082878,0.143373,0.218991,0.264362,0.324857,0.309733,0.355104,0.370228,0.370228,0.400476,0.430723,0.445847,0.506341,0.612207,0.733197,0.793692,0.884434,0.960052,1.020547,1.065918,1.096166,1.111289,1.186908,1.247403,1.368392,1.428887,1.565000,1.655742,1.685990,1.716237,1.701114,1.701114,1.716237,1.670866,1.685990,1.701114,1.701114,1.731361,1.731361,1.685990,1.746485,1.685990,1.580124,1.474258,1.444011,1.277650,1.171784,1.096166,1.020547,0.929805,0.884434,0.778568,0.748321,0.551713,0.415599,0.309733,0.188744,0.128249,0.022383,-0.098607,-0.128854,-0.159101,-0.204472,-0.189349,-0.219596,-0.264967,-0.401080,-0.416204,-0.476699,-0.506946,1.000000,117.000000
1.071811,-0.816905,-0.832386,-0.816905,-0.785942,-0.801424,-0.724017,-0.708536,-0.708536,-0.693055,-0.693055,-0.770461,-0.785942,-0.816905,-0.770461,-0.785942,-0.785942,-0.724017,-0.708536,-0.724017,-0.677573,-0.724017,-0.708536,-0.724017,-0.708536,-0.770461,-0.754980,-0.739498,-0.739498,-0.693055,-0.646611,-0.631130,-0.569204,-0.646611,-0.615648,-0.615648,-0.693055,-0.724017,-0.708536,-0.754980,-0.693055,-0.662092,-0.677573,-0.615648,-0.646611,-0.584686,-0.631130,-0.646611,-0.646611,-0.646611,-0.693055,-0.739498,-0.739498,-0.677573,-0.677573,-0.662092,-0.615648,-0.600167,-0.646611,-0.646611,-0.693055,-0.724017,-0.724017,-0.724017,-0.724017,-0.708536,-0.662092,-0.646611,-0.615648,-0.646611,-0.615648,-0.646611,-0.600167,-0.677573,-0.569204,-0.538242,-0.460835,-0.414392,-0.290541,-0.290541,-0.166691,-0.135729,-0.089285,-0.073803,-0.104766,-0.042841,-0.058322,-0.120247,-0.120247,-0.042841,-0.073803,-0.058322,-0.120247,-0.151210,-0.213135,-0.290541,-0.383429,-0.429873,-0.507279,-0.522761,-0.553723,-0.553723,-0.491798,-0.476317,-0.445354,-0.445354,-0.491798,-0.569204,-0.569204,-0.600167,-0.677573,-0.693055,-0.600167,-0.615648,-0.584686,-0.569204,-0.491798,-0.507279,-0.569204,-0.615648,-0.646611,-0.662092,-0.600167,-0.615648,-0.600167,-0.569204,-0.569204,-0.538242,-0.476317,-0.321504,0.003603,0.468041,1.180180,1.923281,2.759270,3.548816,4.276436,4.771837,4.880206,4.524136,3.672666,2.542533,1.242105,-0.058322,-1.064605,-1.544525,-1.575487,-1.343268,-1.002680,-0.677573,-0.584686,-0.414392,-0.367948,-0.383429,-0.352466,-0.398910,-0.398910,-0.383429,-0.383429,-0.414392,-0.460835,-0.398910,-0.383429,-0.321504,-0.336985,-0.336985,-0.352466,-0.306023,-0.275060,-0.336985,-0.352466,-0.321504,-0.275060,-0.259579,-0.306023,-0.228616,-0.166691,-0.244098,-0.197654,-0.197654,-0.244098,-0.244098,-0.259579,-0.275060,-0.197654,-0.151210,-0.120247,-0.104766,-0.058322,-0.042841,-0.073803,-0.058322,-0.073803,-0.120247,-0.089285,-0.135729,-0.073803,-0.042841,0.034565,0.096491,0.127453,0.142934,0.173897,0.173897,0.173897,0.142934,0.204860,0.235822,0.297747,0.359672,0.359672,0.421597,0.529966,0.591891,0.638335,0.653817,0.653817,0.700260,0.824111,0.808629,0.824111,1.025367,1.056330,1.149218,1.226624,1.257586,1.334993,1.350474,1.365955,1.396918,1.427881,1.474324,1.520768,1.629137,1.675581,1.691062,1.768469,1.799431,1.722025,1.737506,1.737506,1.737506,1.722025,1.722025,1.644618,1.629137,1.582693,1.520768,1.474324,1.396918,1.242105,1.164699,1.009886,0.839592,0.777667,0.622854,0.560929,0.468041,0.406116,0.328710,0.266785,0.111972,0.034565,-0.104766,-0.166691,-0.213135,-0.290541,-0.352466,-0.398910,-0.383429,-0.398910,-0.398910,-0.414392,-0.445354,-0.460835,1.000000,117.000000
0.857278,-0.859969,-0.830362,-0.815558,-0.756342,-0.682323,-0.667519,-0.682323,-0.637912,-0.682323,-0.697127,-0.726735,-0.711931,-0.726735,-0.741539,-0.711931,-0.667519,-0.637912,-0.593500,-0.608304,-0.623108,-0.608304,-0.637912,-0.667519,-0.682323,-0.682323,-0.711931,-0.652715,-0.652715,-0.608304,-0.578696,-0.563892,-0.563892,-0.608304,-0.652715,-0.623108,-0.667519,-0.637912,-0.652715,-0.637912,-0.637912,-0.608304,-0.578696,-0.563892,-0.578696,-0.578696,-0.623108,-0.682323,-0.682323,-0.682323,-0.637912,-0.667519,-0.637912,-0.623108,-0.593500,-0.578696,-0.637912,-0.623108,-0.637912,-0.682323,-0.667519,-0.682323,-0.637912,-0.623108,-0.593500,-0.578696,-0.519481,-0.549088,-0.578696,-0.593500,-0.593500,-0.578696,-0.578696,-0.519481,-0.519481,-0.430658,-0.341834,-0.312227,-0.297423,-0.253011,-0.164188,-0.134580,-0.104973,-0.104973,-0.075365,-0.134580,-0.090169,-0.104973,-0.075365,-0.045757,-0.119777,-0.134580,-0.178992,-0.223404,-0.282619,-0.356638,-0.415854,-0.489873,-0.534285,-0.504677,-0.489873,-0.534285,-0.504677,-0.489873,-0.504677,-0.578696,-0.593500,-0.652715,-0.697127,-0.697127,-0.726735,-0.637912,-0.593500,-0.593500,-0.563892,-0.578696,-0.578696,-0.608304,-0.593500,-0.593500,-0.637912,-0.652715,-0.682323,-0.623108,-0.623108,-0.593500,-0.549088,-0.578696,-0.519481,-0.401050,-0.149384,0.265124,0.812866,1.449432,2.234036,3.018641,3.684814,4.232557,4.439811,4.262164,3.788441,2.974229,1.893548,0.709239,-0.563892,-1.496535,-2.029474,-2.103493,-1.763005,-1.392908,-1.111635,-0.889577,-0.800754,-0.785950,-0.711931,-0.623108,-0.593500,-0.578696,-0.534285,-0.504677,-0.430658,-0.430658,-0.430658,-0.445461,-0.430658,-0.445461,-0.415854,-0.445461,-0.460265,-0.460265,-0.386246,-0.356638,-0.341834,-0.297423,-0.297423,-0.253011,-0.253011,-0.282619,-0.297423,-0.282619,-0.312227,-0.312227,-0.312227,-0.267815,-0.208600,-0.178992,-0.149384,-0.119777,-0.149384,-0.119777,-0.134580,-0.090169,-0.104973,-0.119777,-0.104973,-0.119777,-0.060561,-0.030954,-0.016150,0.028262,0.013458,0.057870,0.057870,0.057870,0.087477,0.072673,0.117085,0.191104,0.279927,0.309535,0.398358,0.398358,0.472378,0.442770,0.501985,0.516789,0.531593,0.576005,0.620416,0.753651,0.812866,0.946101,1.005316,1.020120,1.138551,1.168159,1.197766,1.212570,1.256982,1.286590,1.390217,1.493844,1.508647,1.641882,1.715901,1.715901,1.789921,1.834332,1.819528,1.819528,1.804724,1.819528,1.849136,1.863940,1.893548,1.908351,1.923155,1.878744,1.789921,1.715901,1.641882,1.523451,1.390217,1.256982,1.182963,1.049728,0.931297,0.842474,0.753651,0.605612,0.516789,0.413162,0.250320,0.191104,0.072673,-0.016150,-0.075365,-0.090169,-0.149384,-0.149384,-0.193796,-0.267815,-0.267815,-0.312227,-0.356638,1.000000,117.000000
0.886433,-0.689835,-0.689835,-0.641085,-0.641085,-0.592334,-0.608584,-0.543584,-0.576084,-0.592334,-0.592334,-0.641085,-0.641085,-0.689835,-0.657335,-0.641085,-0.641085,-0.657335,-0.592334,-0.608584,-0.576084,-0.592334,-0.608584,-0.641085,-0.657335,-0.706085,-0.706085,-0.706085,-0.657335,-0.624834,-0.592334,-0.511083,-0.559834,-0.559834,-0.624834,-0.576084,-0.657335,-0.673585,-0.624834,-0.722336,-0.641085,-0.592334,-0.608584,-0.592334,-0.543584,-0.608584,-0.641085,-0.673585,-0.722336,-0.738586,-0.738586,-0.706085,-0.608584,-0.576084,-0.543584,-0.576084,-0.511083,-0.576084,-0.576084,-0.641085,-0.592334,-0.624834,-0.624834,-0.641085,-0.608584,-0.576084,-0.494833,-0.494833,-0.543584,-0.543584,-0.527333,-0.527333,-0.527333,-0.559834,-0.527333,-0.462333,-0.429832,-0.348581,-0.299831,-0.202330,-0.153579,-0.121079,-0.056078,-0.023578,-0.056078,-0.056078,-0.088578,-0.104828,-0.072328,-0.072328,-0.056078,-0.023578,-0.088578,-0.104828,-0.137329,-0.218580,-0.332331,-0.413582,-0.494833,-0.494833,-0.527333,-0.511083,-0.478583,-0.494833,-0.527333,-0.543584,-0.592334,-0.641085,-0.673585,-0.657335,-0.673585,-0.722336,-0.608584,-0.592334,-0.576084,-0.592334,-0.624834,-0.592334,-0.608584,-0.689835,-0.641085,-0.673585,-0.657335,-0.689835,-0.608584,-0.657335,-0.608584,-0.608584,-0.559834,-0.462333,-0.169829,0.236425,0.821432,1.601441,2.430201,3.323961,4.120220,4.705227,4.981480,4.835229,4.152721,3.226460,1.975196,0.707681,-0.446082,-1.258592,-1.583596,-1.518595,-1.209841,-0.868587,-0.641085,-0.559834,-0.462333,-0.511083,-0.494833,-0.559834,-0.511083,-0.462333,-0.543584,-0.527333,-0.494833,-0.494833,-0.446082,-0.429832,-0.413582,-0.429832,-0.429832,-0.462333,-0.462333,-0.494833,-0.494833,-0.446082,-0.413582,-0.381082,-0.364831,-0.348581,-0.316081,-0.332331,-0.348581,-0.348581,-0.348581,-0.364831,-0.413582,-0.381082,-0.348581,-0.267330,-0.234830,-0.234830,-0.202330,-0.234830,-0.267330,-0.267330,-0.234830,-0.283581,-0.234830,-0.218580,-0.153579,-0.072328,-0.023578,0.008923,0.025173,0.008923,0.025173,0.057673,0.073924,0.073924,0.090174,0.138924,0.203925,0.268926,0.317676,0.415178,0.431428,0.545179,0.496428,0.528929,0.545179,0.577679,0.610180,0.740181,0.772682,0.853933,0.967684,1.016434,1.032685,1.130186,1.227687,1.211437,1.260187,1.276437,1.373939,1.390189,1.455190,1.536440,1.585191,1.666442,1.682692,1.666442,1.698942,1.715193,1.666442,1.666442,1.617691,1.650192,1.682692,1.698942,1.666442,1.650192,1.633942,1.487690,1.357688,1.276437,1.195187,1.032685,0.886433,0.821432,0.772682,0.675181,0.561429,0.512679,0.398927,0.268926,0.187675,0.090174,-0.072328,-0.153579,-0.234830,-0.283581,-0.299831,-0.299831,-0.332331,-0.364831,-0.413582,-0.446082,-0.446082,1.000000,117.000000
1.030633,-0.561734,-0.561734,-0.596351,-0.579043,-0.682893,-0.630968,-0.648276,-0.613659,-0.630968,-0.544426,-0.561734,-0.509809,-0.509809,-0.509809,-0.527118,-0.579043,-0.648276,-0.648276,-0.613659,-0.630968,-0.648276,-0.579043,-0.579043,-0.579043,-0.561734,-0.544426,-0.561734,-0.579043,-0.682893,-0.613659,-0.682893,-0.734818,-0.682893,-0.630968,-0.579043,-0.561734,-0.596351,-0.596351,-0.561734,-0.613659,-0.630968,-0.665584,-0.734818,-0.665584,-0.665584,-0.579043,-0.544426,-0.509809,-0.492501,-0.527118,-0.544426,-0.648276,-0.579043,-0.630968,-0.613659,-0.613659,-0.630968,-0.509809,-0.561734,-0.509809,-0.475193,-0.475193,-0.475193,-0.509809,-0.561734,-0.630968,-0.630968,-0.613659,-0.544426,-0.405959,-0.388651,-0.302109,-0.284801,-0.267492,-0.284801,-0.267492,-0.232876,-0.232876,-0.146334,-0.163642,-0.077101,-0.007867,0.009441,0.026749,0.044058,-0.025176,-0.025176,-0.094409,-0.163642,-0.198259,-0.215567,-0.232876,-0.250184,-0.302109,-0.319418,-0.302109,-0.388651,-0.405959,-0.492501,-0.579043,-0.561734,-0.613659,-0.665584,-0.648276,-0.630968,-0.561734,-0.579043,-0.579043,-0.579043,-0.596351,-0.665584,-0.665584,-0.682893,-0.734818,-0.786743,-0.682893,-0.682893,-0.648276,-0.682893,-0.682893,-0.682893,-0.630968,-0.613659,-0.665584,-0.700201,-0.717509,-0.804051,-0.734818,-0.613659,-0.302109,0.095983,0.771008,1.532575,2.328758,3.159558,3.817275,4.423067,4.682692,4.596151,4.094209,3.349950,2.276833,1.203716,0.044058,-0.907901,-1.513693,-1.738701,-1.652160,-1.375226,-1.115601,-0.925209,-0.786743,-0.717509,-0.648276,-0.613659,-0.475193,-0.475193,-0.492501,-0.544426,-0.561734,-0.596351,-0.613659,-0.665584,-0.630968,-0.648276,-0.544426,-0.561734,-0.440576,-0.440576,-0.492501,-0.475193,-0.475193,-0.492501,-0.544426,-0.544426,-0.509809,-0.457884,-0.440576,-0.440576,-0.371343,-0.354034,-0.284801,-0.302109,-0.440576,-0.336726,-0.423268,-0.388651,-0.405959,-0.336726,-0.319418,-0.232876,-0.198259,-0.163642,-0.180951,-0.198259,-0.250184,-0.180951,-0.163642,-0.267492,-0.180951,-0.146334,-0.077101,0.009441,0.009441,0.078674,0.061366,0.061366,0.044058,0.061366,0.061366,0.061366,0.078674,0.165216,0.269066,0.303683,0.338299,0.442149,0.424841,0.476766,0.442149,0.563308,0.545999,0.597924,0.684466,0.788316,0.874858,1.013325,1.047941,1.117175,1.169100,1.151791,1.238333,1.255641,1.272950,1.290258,1.324875,1.411416,1.532575,1.567191,1.636425,1.671041,1.705658,1.705658,1.671041,1.722966,1.705658,1.671041,1.671041,1.688350,1.740275,1.653733,1.722966,1.688350,1.671041,1.549883,1.376800,1.342183,1.221025,1.082558,0.961400,0.944091,0.857549,0.719083,0.701774,0.580616,0.476766,0.303683,0.199833,0.026749,-0.042484,-0.180951,-0.267492,-0.232876,-0.319418,1.000000,117.000000
0.901550,-0.758109,-0.640760,-0.674288,-0.573703,-0.573703,-0.590467,-0.640760,-0.607231,-0.691052,-0.674288,-0.674288,-0.657524,-0.724581,-0.674288,-0.640760,-0.640760,-0.556938,-0.607231,-0.607231,-0.640760,-0.691052,-0.640760,-0.707817,-0.691052,-0.707817,-0.707817,-0.623995,-0.556938,-0.506646,-0.540174,-0.607231,-0.623995,-0.640760,-0.691052,-0.707817,-0.674288,-0.657524,-0.623995,-0.590467,-0.607231,-0.523410,-0.456353,-0.523410,-0.556938,-0.573703,-0.540174,-0.573703,-0.590467,-0.590467,-0.573703,-0.540174,-0.489882,-0.506646,-0.456353,-0.473117,-0.506646,-0.523410,-0.540174,-0.556938,-0.556938,-0.573703,-0.556938,-0.506646,-0.506646,-0.456353,-0.456353,-0.456353,-0.489882,-0.506646,-0.506646,-0.590467,-0.556938,-0.540174,-0.473117,-0.439589,-0.322239,-0.238418,-0.204889,-0.204889,-0.154597,-0.137833,-0.104304,-0.070776,-0.070776,-0.003719,-0.003719,-0.003719,0.029810,0.013046,0.013046,-0.037247,-0.054011,-0.104304,-0.204889,-0.238418,-0.322239,-0.406060,-0.406060,-0.439589,-0.456353,-0.473117,-0.439589,-0.489882,-0.456353,-0.506646,-0.556938,-0.607231,-0.691052,-0.640760,-0.674288,-0.607231,-0.573703,-0.573703,-0.573703,-0.556938,-0.573703,-0.607231,-0.623995,-0.640760,-0.657524,-0.674288,-0.640760,-0.590467,-0.556938,-0.489882,-0.506646,-0.540174,-0.489882,-0.473117,-0.238418,0.163924,0.784201,1.588884,2.477389,3.382658,4.237634,4.774089,4.924968,4.572918,3.818528,2.695324,1.287128,-0.087540,-1.328093,-2.099248,-2.283655,-1.998663,-1.495736,-1.193980,-0.942516,-0.858695,-0.774874,-0.758109,-0.724581,-0.691052,-0.590467,-0.573703,-0.523410,-0.506646,-0.506646,-0.523410,-0.439589,-0.489882,-0.473117,-0.506646,-0.506646,-0.523410,-0.523410,-0.489882,-0.473117,-0.473117,-0.406060,-0.372532,-0.322239,-0.372532,-0.406060,-0.372532,-0.406060,-0.406060,-0.406060,-0.439589,-0.339003,-0.339003,-0.238418,-0.188125,-0.171361,-0.221654,-0.154597,-0.171361,-0.221654,-0.221654,-0.188125,-0.171361,-0.121068,-0.070776,0.013046,0.029810,0.063338,0.080103,-0.003719,0.029810,0.029810,-0.003719,0.029810,0.113631,0.113631,0.163924,0.230981,0.331566,0.348330,0.381859,0.365095,0.314802,0.415387,0.432152,0.515973,0.482444,0.532737,0.683615,0.750672,0.817729,0.918315,0.918315,0.951843,1.018900,1.018900,1.052428,1.102721,1.153014,1.253599,1.337420,1.370949,1.454770,1.521827,1.555356,1.588884,1.605648,1.588884,1.605648,1.588884,1.655941,1.622413,1.672705,1.689469,1.756526,1.756526,1.722998,1.622413,1.572120,1.505063,1.438006,1.370949,1.320656,1.169778,1.153014,1.069193,1.018900,0.884786,0.817729,0.666851,0.532737,0.432152,0.314802,0.180688,0.029810,0.046574,-0.020483,-0.054011,-0.054011,-0.154597,-0.188125,-0.322239,-0.406060,-0.439589,0.000000,117.000000
0.968440,-0.736979,-0.719753,-0.685300,-0.685300,-0.633621,-0.719753,-0.702526,-0.702526,-0.719753,-0.771432,-0.736979,-0.736979,-0.702526,-0.685300,-0.702526,-0.668074,-0.616394,-0.633621,-0.650847,-0.702526,-0.702526,-0.702526,-0.754206,-0.771432,-0.719753,-0.702526,-0.702526,-0.616394,-0.581941,-0.581941,-0.616394,-0.616394,-0.633621,-0.685300,-0.702526,-0.719753,-0.668074,-0.599168,-0.581941,-0.581941,-0.530262,-0.564715,-0.564715,-0.616394,-0.650847,-0.668074,-0.633621,-0.650847,-0.650847,-0.599168,-0.581941,-0.581941,-0.530262,-0.513035,-0.616394,-0.616394,-0.633621,-0.633621,-0.616394,-0.633621,-0.633621,-0.581941,-0.564715,-0.495809,-0.495809,-0.530262,-0.530262,-0.530262,-0.599168,-0.564715,-0.530262,-0.530262,-0.495809,-0.409677,-0.323544,-0.271865,-0.220186,-0.116827,-0.151280,-0.168506,-0.116827,-0.099600,-0.134053,-0.134053,-0.168506,-0.134053,-0.116827,-0.082374,-0.082374,-0.168506,-0.168506,-0.289091,-0.375224,-0.426903,-0.478582,-0.564715,-0.564715,-0.547488,-0.513035,-0.444130,-0.426903,-0.495809,-0.547488,-0.530262,-0.650847,-0.616394,-0.685300,-0.719753,-0.702526,-0.668074,-0.633621,-0.581941,-0.564715,-0.581941,-0.633621,-0.650847,-0.650847,-0.685300,-0.668074,-0.719753,-0.702526,-0.668074,-0.530262,-0.530262,-0.513035,-0.581941,-0.599168,-0.564715,-0.340771,-0.099600,0.451647,1.089026,1.898669,2.794445,3.638542,4.362053,4.861621,4.930527,4.568771,3.845259,2.708313,1.468008,0.227703,-0.771432,-1.426038,-1.563850,-1.374358,-1.029829,-0.736979,-0.650847,-0.633621,-0.547488,-0.599168,-0.599168,-0.530262,-0.564715,-0.513035,-0.530262,-0.461356,-0.461356,-0.444130,-0.444130,-0.513035,-0.513035,-0.530262,-0.564715,-0.564715,-0.581941,-0.513035,-0.478582,-0.444130,-0.375224,-0.271865,-0.340771,-0.357997,-0.375224,-0.426903,-0.409677,-0.444130,-0.426903,-0.461356,-0.392450,-0.289091,-0.271865,-0.185733,-0.237412,-0.254638,-0.271865,-0.271865,-0.289091,-0.306318,-0.323544,-0.237412,-0.202959,-0.168506,-0.099600,-0.082374,0.003759,0.020985,-0.065147,-0.030694,-0.082374,-0.082374,-0.047921,0.020985,0.055438,0.089891,0.124344,0.176023,0.193250,0.158797,0.193250,0.176023,0.193250,0.193250,0.244929,0.313835,0.399967,0.486099,0.537779,0.606685,0.623911,0.589458,0.675591,0.692817,0.727270,0.796176,0.847855,0.916761,1.037346,1.071799,1.175158,1.244064,1.261290,1.347423,1.312970,1.330196,1.381875,1.433555,1.450781,1.485234,1.536914,1.640272,1.623046,1.709178,1.691952,1.691952,1.691952,1.709178,1.623046,1.571367,1.554140,1.554140,1.536914,1.502461,1.468008,1.399102,1.347423,1.209611,1.140705,0.933987,0.847855,0.744496,0.641138,0.606685,0.520552,0.417194,0.348288,0.227703,0.193250,0.089891,-0.047921,-0.099600,-0.220186,1.000000,117.000000
0.843472,-0.688062,-0.720305,-0.768669,-0.768669,-0.752547,-0.784790,-0.752547,-0.720305,-0.671940,-0.607455,-0.591333,-0.607455,-0.575212,-0.607455,-0.688062,-0.704183,-0.671940,-0.704183,-0.655819,-0.639698,-0.639698,-0.575212,-0.575212,-0.607455,-0.623576,-0.655819,-0.623576,-0.704183,-0.607455,-0.655819,-0.639698,-0.591333,-0.607455,-0.607455,-0.559090,-0.542969,-0.575212,-0.591333,-0.575212,-0.623576,-0.639698,-0.671940,-0.671940,-0.591333,-0.623576,-0.559090,-0.510726,-0.575212,-0.526848,-0.526848,-0.575212,-0.591333,-0.671940,-0.639698,-0.639698,-0.639698,-0.607455,-0.607455,-0.591333,-0.591333,-0.575212,-0.559090,-0.607455,-0.639698,-0.671940,-0.655819,-0.671940,-0.623576,-0.542969,-0.559090,-0.510726,-0.559090,-0.494605,-0.526848,-0.462362,-0.446241,-0.446241,-0.430119,-0.381755,-0.317269,-0.236662,-0.156055,-0.139934,-0.107691,-0.043205,-0.075448,-0.172177,-0.252784,-0.188298,-0.301148,-0.268905,-0.268905,-0.268905,-0.268905,-0.268905,-0.317269,-0.397876,-0.478483,-0.526848,-0.559090,-0.623576,-0.623576,-0.607455,-0.639698,-0.639698,-0.575212,-0.671940,-0.623576,-0.607455,-0.623576,-0.655819,-0.688062,-0.688062,-0.671940,-0.655819,-0.623576,-0.623576,-0.607455,-0.575212,-0.575212,-0.623576,-0.655819,-0.655819,-0.671940,-0.607455,-0.688062,-0.655819,-0.623576,-0.510726,-0.236662,0.246980,0.795108,1.504450,2.310520,3.148834,3.761447,4.261211,4.438547,4.083876,3.487383,2.423370,1.214265,-0.091570,-1.220068,-1.961653,-2.235717,-2.042260,-1.703711,-1.381282,-1.091097,-0.897640,-0.817033,-0.671940,-0.623576,-0.478483,-0.510726,-0.430119,-0.446241,-0.478483,-0.510726,-0.542969,-0.510726,-0.478483,-0.478483,-0.397876,-0.381755,-0.333391,-0.349512,-0.349512,-0.381755,-0.349512,-0.365634,-0.381755,-0.430119,-0.365634,-0.317269,-0.301148,-0.252784,-0.220541,-0.252784,-0.285027,-0.268905,-0.285027,-0.268905,-0.285027,-0.333391,-0.285027,-0.188298,-0.172177,-0.123812,-0.043205,-0.059327,-0.043205,-0.123812,-0.075448,-0.139934,-0.107691,-0.123812,-0.075448,0.005159,0.053523,0.085766,0.101887,0.166373,0.182494,0.182494,0.150252,0.166373,0.150252,0.134130,0.230859,0.246980,0.311466,0.392073,0.472680,0.569408,0.601651,0.666137,0.633894,0.666137,0.730622,0.811229,0.827351,0.924079,1.101415,1.149779,1.246507,1.310993,1.343236,1.375479,1.343236,1.407722,1.391600,1.456086,1.520571,1.585057,1.649543,1.730150,1.843000,1.843000,1.843000,1.810757,1.794635,1.762393,1.762393,1.746271,1.810757,1.843000,1.794635,1.826878,1.875242,1.778514,1.665664,1.617300,1.488329,1.391600,1.278750,1.133658,1.004686,0.924079,0.891836,0.827351,0.746744,0.617772,0.488801,0.343708,0.182494,0.085766,-0.027084,-0.107691,-0.139934,-0.188298,-0.188298,-0.220541,1.000000,117.000000
1.271004,-0.525502,-0.595953,-0.613566,-0.560728,-0.578340,-0.507889,-0.455051,-0.455051,-0.455051,-0.472664,-0.472664,-0.578340,-0.543115,-0.578340,-0.613566,-0.648792,-0.631179,-0.560728,-0.490276,-0.525502,-0.490276,-0.507889,-0.490276,-0.525502,-0.578340,-0.613566,-0.595953,-0.648792,-0.578340,-0.507889,-0.507889,-0.455051,-0.437438,-0.455051,-0.455051,-0.525502,-0.507889,-0.525502,-0.631179,-0.613566,-0.543115,-0.525502,-0.472664,-0.437438,-0.455051,-0.437438,-0.455051,-0.543115,-0.543115,-0.543115,-0.631179,-0.613566,-0.631179,-0.560728,-0.560728,-0.543115,-0.472664,-0.507889,-0.490276,-0.507889,-0.560728,-0.560728,-0.631179,-0.578340,-0.613566,-0.595953,-0.490276,-0.525502,-0.472664,-0.507889,-0.472664,-0.490276,-0.543115,-0.507889,-0.472664,-0.490276,-0.419825,-0.296536,-0.190859,-0.155633,-0.085182,0.002882,0.038108,0.020495,0.020495,-0.049956,-0.102795,-0.120408,-0.085182,-0.067569,-0.102795,-0.085182,-0.085182,-0.155633,-0.261310,-0.261310,-0.384600,-0.490276,-0.560728,-0.578340,-0.631179,-0.595953,-0.631179,-0.560728,-0.560728,-0.631179,-0.578340,-0.648792,-0.754469,-0.701630,-0.736856,-0.719243,-0.754469,-0.684017,-0.578340,-0.613566,-0.578340,-0.631179,-0.613566,-0.648792,-0.684017,-0.719243,-0.719243,-0.736856,-0.719243,-0.719243,-0.631179,-0.613566,-0.525502,-0.296536,0.108559,0.742620,1.517583,2.398224,3.314090,4.089053,4.846404,5.128208,4.952080,4.318019,3.243638,1.993129,0.548879,-0.631179,-1.476594,-1.705560,-1.599883,-1.282853,-0.983435,-0.754469,-0.560728,-0.507889,-0.490276,-0.437438,-0.507889,-0.437438,-0.525502,-0.560728,-0.560728,-0.543115,-0.595953,-0.507889,-0.525502,-0.455051,-0.419825,-0.402212,-0.437438,-0.472664,-0.455051,-0.560728,-0.472664,-0.543115,-0.525502,-0.455051,-0.419825,-0.366987,-0.349374,-0.278923,-0.331761,-0.331761,-0.384600,-0.366987,-0.366987,-0.402212,-0.314148,-0.296536,-0.226084,-0.243697,-0.208472,-0.243697,-0.243697,-0.243697,-0.261310,-0.261310,-0.261310,-0.296536,-0.261310,-0.278923,-0.155633,-0.085182,-0.067569,-0.032344,-0.014731,-0.014731,0.002882,-0.085182,-0.032344,0.020495,0.055721,0.108559,0.179010,0.249461,0.302300,0.319913,0.372751,0.390364,0.407977,0.496041,0.513653,0.566492,0.601717,0.707394,0.795458,0.901135,0.918748,1.006812,1.059650,1.130102,1.165327,1.165327,1.200553,1.235778,1.306230,1.411907,1.499971,1.535196,1.605647,1.658486,1.676099,1.658486,1.623260,1.640873,1.570422,1.623260,1.623260,1.623260,1.676099,1.658486,1.588035,1.640873,1.517583,1.447132,1.359068,1.235778,1.077263,1.006812,0.918748,0.830684,0.742620,0.672169,0.548879,0.443202,0.302300,0.179010,0.020495,-0.049956,-0.190859,-0.261310,-0.349374,-0.384600,-0.366987,-0.455051,-0.455051,-0.455051,1.000000,117.000000
1.595964,-0.598486,-0.633045,-0.615766,-0.529370,-0.546649,-0.546649,-0.494812,-0.442974,-0.512091,-0.546649,-0.598486,-0.650324,-0.615766,-0.633045,-0.615766,-0.546649,-0.512091,-0.512091,-0.512091,-0.512091,-0.494812,-0.581207,-0.563928,-0.650324,-0.667603,-0.667603,-0.650324,-0.615766,-0.563928,-0.563928,-0.529370,-0.546649,-0.546649,-0.581207,-0.581207,-0.650324,-0.667603,-0.650324,-0.667603,-0.546649,-0.581207,-0.563928,-0.546649,-0.581207,-0.563928,-0.615766,-0.615766,-0.667603,-0.736719,-0.684882,-0.702161,-0.615766,-0.581207,-0.598486,-0.563928,-0.563928,-0.563928,-0.615766,-0.650324,-0.684882,-0.650324,-0.598486,-0.598486,-0.529370,-0.494812,-0.494812,-0.494812,-0.529370,-0.512091,-0.563928,-0.563928,-0.598486,-0.581207,-0.546649,-0.460253,-0.425695,-0.339299,-0.252904,-0.287462,-0.235625,-0.218345,-0.183787,-0.131950,-0.080112,-0.080112,-0.097391,-0.097391,-0.045554,-0.010996,-0.097391,-0.010996,-0.028275,-0.114671,-0.201066,-0.218345,-0.356579,-0.391137,-0.494812,-0.494812,-0.460253,-0.529370,-0.494812,-0.529370,-0.529370,-0.563928,-0.615766,-0.667603,-0.702161,-0.771278,-0.771278,-0.719440,-0.702161,-0.736719,-0.615766,-0.667603,-0.633045,-0.650324,-0.719440,-0.753999,-0.805836,-0.753999,-0.805836,-0.719440,-0.667603,-0.615766,-0.563928,-0.529370,-0.598486,-0.598486,-0.512091,-0.149229,0.386424,1.043031,1.872430,2.805503,3.738577,4.412463,4.792604,4.706208,4.118717,3.081969,1.820593,0.472820,-0.736719,-1.617955,-1.963538,-1.911701,-1.548839,-1.168698,-0.874953,-0.719440,-0.684882,-0.581207,-0.615766,-0.581207,-0.581207,-0.546649,-0.529370,-0.512091,-0.477532,-0.477532,-0.442974,-0.477532,-0.391137,-0.460253,-0.442974,-0.477532,-0.529370,-0.512091,-0.494812,-0.442974,-0.391137,-0.339299,-0.373858,-0.339299,-0.356579,-0.391137,-0.391137,-0.408416,-0.477532,-0.442974,-0.408416,-0.373858,-0.287462,-0.304741,-0.235625,-0.235625,-0.218345,-0.252904,-0.201066,-0.304741,-0.304741,-0.270183,-0.252904,-0.218345,-0.183787,-0.114671,-0.028275,-0.028275,-0.045554,-0.028275,-0.028275,0.006283,-0.028275,-0.028275,-0.045554,0.006283,0.092679,0.144516,0.248191,0.282749,0.334587,0.369145,0.369145,0.420983,0.403703,0.455541,0.541937,0.611053,0.611053,0.732007,0.852961,0.870240,0.904798,0.956636,0.922077,1.043031,1.025752,1.163985,1.198544,1.267660,1.354056,1.457731,1.544126,1.578685,1.595964,1.613243,1.665080,1.716918,1.665080,1.630522,1.665080,1.751476,1.803313,1.786034,1.855151,1.837872,1.820593,1.751476,1.716918,1.647801,1.578685,1.526847,1.440452,1.354056,1.284939,1.267660,1.198544,1.077590,0.939357,0.835682,0.680170,0.507378,0.386424,0.282749,0.196354,0.127237,0.092679,0.023562,-0.062833,-0.131950,-0.235625,-0.270183,-0.373858,1.000000,117.000000
1.712254,-0.616053,-0.598806,-0.598806,-0.564313,-0.529819,-0.495326,-0.495326,-0.529819,-0.581559,-0.581559,-0.598806,-0.650546,-0.616053,-0.650546,-0.547066,-0.581559,-0.547066,-0.512572,-0.512572,-0.547066,-0.529819,-0.547066,-0.616053,-0.650546,-0.616053,-0.616053,-0.564313,-0.529819,-0.478079,-0.512572,-0.495326,-0.564313,-0.598806,-0.564313,-0.650546,-0.650546,-0.650546,-0.598806,-0.581559,-0.547066,-0.529819,-0.512572,-0.529819,-0.529819,-0.529819,-0.667793,-0.633299,-0.616053,-0.616053,-0.598806,-0.547066,-0.547066,-0.478079,-0.460832,-0.443586,-0.495326,-0.529819,-0.564313,-0.598806,-0.581559,-0.598806,-0.598806,-0.512572,-0.443586,-0.495326,-0.460832,-0.478079,-0.495326,-0.529819,-0.564313,-0.581559,-0.633299,-0.616053,-0.529819,-0.460832,-0.391845,-0.288365,-0.288365,-0.271118,-0.150391,-0.184885,-0.167638,-0.167638,-0.115898,-0.081405,-0.081405,0.039323,-0.012418,0.039323,0.073816,-0.029664,-0.012418,-0.081405,-0.150391,-0.236625,-0.305612,-0.340105,-0.409092,-0.426339,-0.512572,-0.460832,-0.512572,-0.478079,-0.529819,-0.547066,-0.633299,-0.667793,-0.736780,-0.667793,-0.685040,-0.616053,-0.598806,-0.564313,-0.581559,-0.581559,-0.529819,-0.633299,-0.702286,-0.685040,-0.685040,-0.616053,-0.633299,-0.616053,-0.581559,-0.495326,-0.581559,-0.581559,-0.581559,-0.581559,-0.495326,-0.219378,0.263530,1.056879,1.901968,2.902278,3.833600,4.557962,5.058117,5.006377,4.540716,3.592146,2.419369,0.970645,-0.391845,-1.374908,-1.892310,-1.875063,-1.581869,-1.202441,-0.909247,-0.771273,-0.685040,-0.719533,-0.667793,-0.650546,-0.581559,-0.564313,-0.512572,-0.512572,-0.478079,-0.495326,-0.460832,-0.478079,-0.443586,-0.512572,-0.512572,-0.547066,-0.564313,-0.547066,-0.512572,-0.495326,-0.512572,-0.460832,-0.443586,-0.340105,-0.443586,-0.426339,-0.426339,-0.495326,-0.443586,-0.409092,-0.357352,-0.305612,-0.288365,-0.288365,-0.253872,-0.271118,-0.305612,-0.253872,-0.288365,-0.305612,-0.288365,-0.253872,-0.236625,-0.167638,-0.202132,-0.064158,-0.029664,-0.046911,-0.012418,-0.046911,-0.064158,-0.098651,-0.064158,-0.012418,0.022076,0.056569,0.091063,0.142803,0.211790,0.194543,0.194543,0.263530,0.194543,0.229036,0.280777,0.315270,0.401504,0.522231,0.608464,0.642958,0.711944,0.729191,0.763685,0.815425,0.849918,0.867165,0.953399,0.987892,1.005139,1.160359,1.263839,1.350073,1.436307,1.453553,1.505293,1.488047,1.488047,1.505293,1.505293,1.574280,1.574280,1.608774,1.677761,1.695007,1.695007,1.712254,1.643267,1.626021,1.574280,1.470800,1.384566,1.384566,1.332826,1.315580,1.263839,1.194853,1.143112,1.005139,0.901658,0.746438,0.608464,0.504984,0.280777,0.211790,0.160050,0.108309,0.073816,-0.012418,-0.012418,-0.133145,-0.236625,-0.288365,-0.409092,0.000000,117.000000
1.443316,-0.771404,-0.754368,-0.737331,-0.703259,-0.720295,-0.703259,-0.720295,-0.754368,-0.771404,-0.805477,-0.839549,-0.805477,-0.788440,-0.771404,-0.720295,-0.669186,-0.669186,-0.652150,-0.720295,-0.720295,-0.754368,-0.839549,-0.771404,-0.771404,-0.771404,-0.754368,-0.635114,-0.669186,-0.652150,-0.652150,-0.635114,-0.686222,-0.686222,-0.720295,-0.788440,-0.754368,-0.771404,-0.686222,-0.669186,-0.635114,-0.566968,-0.652150,-0.652150,-0.720295,-0.720295,-0.703259,-0.703259,-0.720295,-0.669186,-0.635114,-0.618077,-0.601041,-0.584005,-0.566968,-0.601041,-0.652150,-0.669186,-0.720295,-0.686222,-0.669186,-0.618077,-0.652150,-0.601041,-0.584005,-0.464750,-0.498823,-0.549932,-0.549932,-0.584005,-0.669186,-0.618077,-0.584005,-0.618077,-0.498823,-0.464750,-0.362533,-0.345496,-0.328460,-0.328460,-0.294387,-0.243278,-0.260315,-0.243278,-0.192170,-0.141061,-0.124024,-0.089952,-0.021806,0.012266,-0.072915,-0.055879,-0.124024,-0.209206,-0.226242,-0.260315,-0.260315,-0.328460,-0.379569,-0.379569,-0.396605,-0.396605,-0.430678,-0.447714,-0.498823,-0.549932,-0.601041,-0.566968,-0.635114,-0.618077,-0.618077,-0.532896,-0.532896,-0.498823,-0.532896,-0.566968,-0.532896,-0.601041,-0.618077,-0.686222,-0.652150,-0.618077,-0.601041,-0.549932,-0.498823,-0.464750,-0.515859,-0.566968,-0.618077,-0.498823,-0.226242,0.233738,0.795936,1.477389,2.329204,3.198056,3.981726,4.612069,4.833541,4.663178,4.169125,3.249165,2.056623,0.864082,-0.379569,-1.231384,-1.589147,-1.521002,-1.231384,-0.924731,-0.703259,-0.549932,-0.549932,-0.549932,-0.584005,-0.532896,-0.515859,-0.498823,-0.447714,-0.379569,-0.362533,-0.345496,-0.413642,-0.430678,-0.464750,-0.481787,-0.481787,-0.447714,-0.481787,-0.430678,-0.413642,-0.362533,-0.294387,-0.294387,-0.277351,-0.345496,-0.362533,-0.396605,-0.396605,-0.379569,-0.379569,-0.345496,-0.294387,-0.243278,-0.175133,-0.158097,-0.192170,-0.141061,-0.158097,-0.192170,-0.209206,-0.192170,-0.158097,-0.175133,-0.124024,-0.106988,-0.072915,-0.021806,0.012266,-0.004770,-0.004770,-0.055879,-0.004770,0.063375,-0.004770,0.046339,0.114484,0.199666,0.267811,0.318920,0.301883,0.284847,0.404101,0.387065,0.370029,0.404101,0.421138,0.506319,0.591501,0.659646,0.727791,0.881118,0.898154,0.881118,0.949263,0.915190,1.034445,1.017408,1.102590,1.136662,1.238880,1.341098,1.409243,1.443316,1.562570,1.528498,1.596643,1.579607,1.613679,1.630715,1.647752,1.698861,1.732933,1.801079,1.801079,1.852187,1.784042,1.698861,1.715897,1.596643,1.494425,1.392207,1.324062,1.272953,1.187771,1.119626,0.949263,0.915190,0.795936,0.659646,0.540392,0.404101,0.233738,0.216702,0.080411,-0.004770,-0.038843,-0.055879,-0.089952,-0.124024,-0.089952,-0.175133,-0.260315,-0.294387,-0.362533,1.000000,117.000000
1.355896,-0.668510,-0.668510,-0.685813,-0.703115,-0.685813,-0.616602,-0.564694,-0.512787,-0.564694,-0.599300,-0.599300,-0.633905,-0.685813,-0.616602,-0.651207,-0.547392,-0.564694,-0.512787,-0.530089,-0.478181,-0.512787,-0.547392,-0.530089,-0.581997,-0.581997,-0.668510,-0.599300,-0.633905,-0.547392,-0.530089,-0.460879,-0.512787,-0.460879,-0.495484,-0.530089,-0.547392,-0.564694,-0.547392,-0.599300,-0.564694,-0.599300,-0.564694,-0.564694,-0.495484,-0.564694,-0.564694,-0.564694,-0.599300,-0.564694,-0.564694,-0.564694,-0.564694,-0.478181,-0.478181,-0.460879,-0.426273,-0.495484,-0.478181,-0.478181,-0.547392,-0.564694,-0.547392,-0.581997,-0.530089,-0.512787,-0.443576,-0.478181,-0.426273,-0.426273,-0.495484,-0.478181,-0.512787,-0.512787,-0.530089,-0.547392,-0.478181,-0.374366,-0.235945,-0.184037,-0.114826,-0.011011,0.040897,0.058200,0.040897,0.006292,0.023594,-0.028313,0.023594,0.023594,0.058200,0.040897,0.023594,-0.080221,-0.114826,-0.184037,-0.270550,-0.374366,-0.426273,-0.443576,-0.478181,-0.495484,-0.460879,-0.460879,-0.391668,-0.460879,-0.512787,-0.547392,-0.581997,-0.651207,-0.685813,-0.651207,-0.668510,-0.668510,-0.633905,-0.599300,-0.547392,-0.599300,-0.599300,-0.633905,-0.633905,-0.651207,-0.581997,-0.616602,-0.633905,-0.547392,-0.564694,-0.581997,-0.478181,-0.339760,-0.114826,0.421555,1.061751,1.840369,2.722802,3.587933,4.383853,4.954840,5.058655,4.729906,3.951288,2.774710,1.373198,-0.080221,-1.291404,-2.000811,-2.191140,-1.914298,-1.533641,-1.101075,-0.876141,-0.737721,-0.633905,-0.547392,-0.530089,-0.512787,-0.478181,-0.530089,-0.581997,-0.547392,-0.581997,-0.530089,-0.478181,-0.495484,-0.443576,-0.408971,-0.408971,-0.443576,-0.443576,-0.460879,-0.512787,-0.460879,-0.426273,-0.443576,-0.357063,-0.322458,-0.270550,-0.357063,-0.235945,-0.357063,-0.357063,-0.339760,-0.339760,-0.408971,-0.270550,-0.305155,-0.184037,-0.184037,-0.149432,-0.166734,-0.166734,-0.184037,-0.184037,-0.201340,-0.166734,-0.201340,-0.149432,-0.114826,-0.028313,-0.045616,0.006292,0.075502,0.040897,0.058200,0.058200,0.075502,0.075502,0.127410,0.179318,0.231226,0.352344,0.335042,0.369647,0.456160,0.473462,0.490765,0.490765,0.490765,0.508068,0.525370,0.646489,0.715699,0.819515,0.906028,1.027146,1.061751,1.148264,1.165567,1.182870,1.200172,1.234777,1.286685,1.321291,1.390501,1.442409,1.580830,1.615435,1.632738,1.615435,1.684645,1.598132,1.632738,1.563527,1.598132,1.632738,1.580830,1.684645,1.615435,1.598132,1.477014,1.425106,1.338593,1.200172,1.027146,0.923330,0.802212,0.663791,0.594581,0.542673,0.421555,0.404252,0.283134,0.144713,0.023594,-0.080221,-0.184037,-0.270550,-0.322458,-0.426273,-0.426273,-0.443576,-0.478181,-0.443576,-0.478181,-0.495484,0.000000,117.000000
1.490567,-0.643404,-0.610061,-0.626733,-0.543375,-0.593389,-0.576718,-0.593389,-0.593389,-0.660076,-0.710091,-0.676748,-0.660076,-0.676748,-0.626733,-0.576718,-0.576718,-0.543375,-0.593389,-0.610061,-0.660076,-0.626733,-0.676748,-0.693419,-0.660076,-0.593389,-0.576718,-0.543375,-0.543375,-0.576718,-0.576718,-0.560046,-0.626733,-0.643404,-0.693419,-0.676748,-0.676748,-0.626733,-0.576718,-0.593389,-0.543375,-0.560046,-0.576718,-0.610061,-0.626733,-0.676748,-0.676748,-0.710091,-0.660076,-0.676748,-0.660076,-0.610061,-0.660076,-0.643404,-0.693419,-0.710091,-0.693419,-0.676748,-0.726763,-0.760106,-0.726763,-0.710091,-0.660076,-0.576718,-0.593389,-0.576718,-0.610061,-0.626733,-0.626733,-0.626733,-0.610061,-0.576718,-0.493360,-0.476688,-0.393330,-0.326643,-0.243285,-0.226613,-0.176598,-0.193270,-0.126583,-0.093240,-0.126583,-0.109912,-0.043225,-0.026553,-0.009882,-0.009882,0.023462,-0.009882,-0.009882,-0.093240,-0.143255,-0.226613,-0.326643,-0.410001,-0.393330,-0.476688,-0.476688,-0.510031,-0.476688,-0.493360,-0.493360,-0.526703,-0.610061,-0.626733,-0.710091,-0.726763,-0.726763,-0.610061,-0.593389,-0.560046,-0.526703,-0.576718,-0.560046,-0.610061,-0.676748,-0.710091,-0.710091,-0.693419,-0.693419,-0.626733,-0.626733,-0.610061,-0.560046,-0.560046,-0.560046,-0.543375,-0.460016,-0.176598,0.223521,0.823701,1.507238,2.357492,3.157732,3.907956,4.591493,4.958270,4.974941,4.608165,3.957971,3.024358,1.924030,0.890387,-0.226613,-0.993509,-1.426972,-1.393629,-1.160226,-0.876807,-0.710091,-0.543375,-0.560046,-0.493360,-0.510031,-0.543375,-0.426673,-0.410001,-0.393330,-0.343315,-0.343315,-0.393330,-0.376658,-0.410001,-0.476688,-0.476688,-0.510031,-0.476688,-0.460016,-0.410001,-0.410001,-0.343315,-0.293300,-0.309971,-0.326643,-0.410001,-0.326643,-0.393330,-0.359986,-0.410001,-0.393330,-0.359986,-0.259956,-0.243285,-0.243285,-0.193270,-0.176598,-0.276628,-0.243285,-0.276628,-0.259956,-0.259956,-0.243285,-0.226613,-0.143255,-0.126583,-0.109912,-0.093240,-0.143255,-0.143255,-0.159927,-0.109912,-0.093240,-0.093240,-0.076568,-0.059897,-0.043225,-0.009882,0.106820,0.090148,0.090148,0.090148,0.140163,0.156835,0.206850,0.206850,0.273536,0.290208,0.406909,0.473596,0.523611,0.623641,0.623641,0.706999,0.673656,0.740342,0.790357,0.857044,0.873716,0.940402,1.057104,1.140462,1.240492,1.257164,1.290507,1.340522,1.290507,1.323850,1.357193,1.340522,1.440552,1.507238,1.557253,1.640611,1.640611,1.673955,1.673955,1.640611,1.590597,1.490567,1.457223,1.373865,1.323850,1.273835,1.257164,1.173805,1.090447,0.957074,0.907059,0.740342,0.573626,0.423581,0.373566,0.256865,0.173506,0.106820,0.023462,0.006790,-0.076568,-0.093240,-0.209942,-0.259956,-0.309971,-0.376658,-0.426673,1.000000,117.000000
1.714850,-0.451741,-0.484321,-0.500611,-0.468031,-0.500611,-0.484321,-0.500611,-0.419161,-0.419161,-0.402870,-0.451741,-0.468031,-0.533192,-0.516901,-0.565772,-0.533192,-0.549482,-0.533192,-0.500611,-0.500611,-0.435451,-0.451741,-0.468031,-0.484321,-0.516901,-0.516901,-0.565772,-0.500611,-0.549482,-0.500611,-0.468031,-0.419161,-0.386580,-0.354000,-0.468031,-0.468031,-0.500611,-0.533192,-0.582062,-0.663513,-0.630933,-0.533192,-0.533192,-0.533192,-0.435451,-0.435451,-0.451741,-0.484321,-0.484321,-0.549482,-0.582062,-0.598352,-0.549482,-0.582062,-0.500611,-0.484321,-0.451741,-0.468031,-0.468031,-0.484321,-0.484321,-0.500611,-0.500611,-0.533192,-0.500611,-0.500611,-0.500611,-0.451741,-0.451741,-0.435451,-0.402870,-0.451741,-0.370290,-0.402870,-0.402870,-0.354000,-0.288839,-0.207389,-0.109648,-0.077067,-0.011907,-0.011907,0.053254,0.020674,0.004384,-0.011907,-0.060777,-0.060777,-0.125938,-0.060777,-0.109648,0.004384,-0.044487,-0.093357,-0.191098,-0.288839,-0.354000,-0.402870,-0.549482,-0.549482,-0.516901,-0.500611,-0.516901,-0.500611,-0.533192,-0.484321,-0.533192,-0.565772,-0.582062,-0.679803,-0.696093,-0.663513,-0.712383,-0.647223,-0.630933,-0.647223,-0.614642,-0.582062,-0.582062,-0.582062,-0.614642,-0.598352,-0.614642,-0.630933,-0.630933,-0.614642,-0.582062,-0.516901,-0.386580,-0.207389,0.167285,0.786311,1.454207,2.252425,3.018062,3.816280,4.337565,4.679658,4.614498,4.109503,3.311285,2.138394,0.770021,-0.516901,-1.722373,-2.406560,-2.520591,-2.227368,-1.787534,-1.380280,-1.184798,-1.005606,-0.940446,-0.826414,-0.712383,-0.598352,-0.533192,-0.516901,-0.549482,-0.582062,-0.598352,-0.582062,-0.533192,-0.500611,-0.435451,-0.435451,-0.402870,-0.419161,-0.419161,-0.435451,-0.468031,-0.484321,-0.435451,-0.451741,-0.386580,-0.321420,-0.321420,-0.305129,-0.321420,-0.256259,-0.321420,-0.386580,-0.337710,-0.370290,-0.321420,-0.288839,-0.288839,-0.223679,-0.207389,-0.191098,-0.223679,-0.207389,-0.239969,-0.239969,-0.223679,-0.223679,-0.191098,-0.191098,-0.125938,-0.109648,-0.093357,-0.109648,-0.044487,-0.044487,0.004384,0.004384,0.069544,0.036964,0.150995,0.199865,0.265026,0.330187,0.411637,0.444218,0.444218,0.525669,0.541959,0.558249,0.607119,0.639700,0.721150,0.818891,0.900342,1.014373,1.079534,1.177275,1.242435,1.258726,1.291306,1.340176,1.340176,1.437917,1.454207,1.519368,1.617109,1.698560,1.763720,1.731140,1.731140,1.796301,1.763720,1.698560,1.714850,1.698560,1.682270,1.714850,1.665979,1.682270,1.617109,1.600819,1.405337,1.340176,1.144694,1.046954,0.900342,0.786311,0.607119,0.541959,0.427928,0.313897,0.265026,0.150995,0.069544,-0.028197,-0.142228,-0.174808,-0.272549,-0.402870,-0.468031,-0.419161,-0.402870,-0.451741,-0.402870,-0.484321,1.000000,117.000000
1.959550,-0.643637,-0.660218,-0.660218,-0.660218,-0.693379,-0.676799,-0.660218,-0.660218,-0.593895,-0.627056,-0.593895,-0.627056,-0.643637,-0.643637,-0.660218,-0.709960,-0.759703,-0.743122,-0.693379,-0.643637,-0.627056,-0.577314,-0.643637,-0.593895,-0.593895,-0.660218,-0.643637,-0.643637,-0.676799,-0.676799,-0.577314,-0.610475,-0.593895,-0.577314,-0.610475,-0.544152,-0.560733,-0.560733,-0.643637,-0.676799,-0.709960,-0.676799,-0.676799,-0.560733,-0.643637,-0.560733,-0.544152,-0.577314,-0.544152,-0.610475,-0.627056,-0.660218,-0.676799,-0.676799,-0.643637,-0.560733,-0.544152,-0.510990,-0.477829,-0.477829,-0.477829,-0.510990,-0.643637,-0.593895,-0.627056,-0.560733,-0.627056,-0.510990,-0.510990,-0.444667,-0.394925,-0.444667,-0.345182,-0.361763,-0.328602,-0.345182,-0.345182,-0.245697,-0.179374,-0.113051,0.003015,0.003015,0.102500,0.003015,-0.013566,0.003015,-0.063309,-0.129632,-0.162793,-0.162793,-0.129632,-0.146213,-0.195955,-0.212536,-0.262278,-0.345182,-0.345182,-0.477829,-0.510990,-0.577314,-0.527571,-0.544152,-0.560733,-0.527571,-0.510990,-0.560733,-0.560733,-0.643637,-0.660218,-0.627056,-0.693379,-0.709960,-0.709960,-0.693379,-0.693379,-0.676799,-0.610475,-0.643637,-0.593895,-0.593895,-0.610475,-0.593895,-0.643637,-0.627056,-0.660218,-0.660218,-0.610475,-0.510990,-0.312021,0.102500,0.566762,1.196833,1.959550,2.689106,3.435243,4.065314,4.662223,4.877773,4.828031,4.396930,3.534728,2.589621,1.412384,0.301469,-0.676799,-1.356612,-1.555582,-1.472678,-1.174223,-0.859188,-0.726541,-0.610475,-0.544152,-0.494410,-0.477829,-0.444667,-0.428086,-0.428086,-0.444667,-0.510990,-0.560733,-0.527571,-0.510990,-0.461248,-0.477829,-0.394925,-0.378344,-0.428086,-0.428086,-0.444667,-0.444667,-0.461248,-0.544152,-0.477829,-0.444667,-0.394925,-0.378344,-0.394925,-0.295440,-0.361763,-0.361763,-0.345182,-0.411506,-0.428086,-0.444667,-0.411506,-0.361763,-0.328602,-0.245697,-0.262278,-0.262278,-0.245697,-0.212536,-0.245697,-0.262278,-0.212536,-0.262278,-0.212536,-0.162793,-0.113051,-0.096470,-0.063309,0.019596,0.052757,0.052757,0.069338,0.036176,0.069338,0.052757,0.119080,0.135661,0.235146,0.268308,0.384373,0.400954,0.400954,0.417535,0.434116,0.483858,0.467277,0.517020,0.583343,0.633086,0.732570,0.815474,0.865217,0.931540,1.014444,1.014444,1.014444,1.064187,1.097348,1.147091,1.229995,1.263156,1.346060,1.379222,1.462126,1.545030,1.495288,1.561611,1.561611,1.495288,1.478707,1.511869,1.528449,1.495288,1.594773,1.495288,1.511869,1.495288,1.478707,1.362641,1.263156,1.196833,0.997863,0.914959,0.815474,0.749151,0.699409,0.566762,0.517020,0.400954,0.301469,0.218565,0.085919,-0.079889,-0.146213,-0.212536,-0.212536,-0.278859,-0.295440,-0.312021,-0.312021,1.000000,117.000000
2.295882,-0.529068,-0.511522,-0.493975,-0.546614,-0.546614,-0.546614,-0.599253,-0.616799,-0.651892,-0.669438,-0.616799,-0.634345,-0.651892,-0.599253,-0.564160,-0.564160,-0.616799,-0.599253,-0.669438,-0.704531,-0.704531,-0.669438,-0.634345,-0.616799,-0.581707,-0.564160,-0.564160,-0.581707,-0.599253,-0.634345,-0.669438,-0.669438,-0.651892,-0.634345,-0.599253,-0.634345,-0.529068,-0.546614,-0.511522,-0.546614,-0.511522,-0.599253,-0.634345,-0.616799,-0.616799,-0.616799,-0.564160,-0.546614,-0.493975,-0.529068,-0.476429,-0.511522,-0.476429,-0.564160,-0.546614,-0.564160,-0.581707,-0.616799,-0.599253,-0.546614,-0.511522,-0.476429,-0.458883,-0.493975,-0.476429,-0.546614,-0.564160,-0.599253,-0.616799,-0.651892,-0.581707,-0.458883,-0.406244,-0.300966,-0.213235,-0.178142,-0.265874,-0.195689,-0.213235,-0.178142,-0.107957,-0.072865,-0.020226,0.014866,0.014866,0.049959,0.049959,0.085052,-0.002680,-0.055319,-0.143050,-0.143050,-0.213235,-0.283420,-0.300966,-0.336059,-0.388698,-0.441337,-0.406244,-0.458883,-0.529068,-0.511522,-0.599253,-0.599253,-0.599253,-0.686984,-0.704531,-0.686984,-0.634345,-0.634345,-0.651892,-0.634345,-0.669438,-0.634345,-0.704531,-0.704531,-0.686984,-0.739623,-0.722077,-0.616799,-0.581707,-0.564160,-0.441337,-0.511522,-0.581707,-0.616799,-0.686984,-0.634345,-0.511522,-0.265874,0.225422,0.892180,1.629123,2.348520,3.120556,3.839953,4.454073,4.717267,4.682174,4.278610,3.471482,2.436252,1.260652,0.172783,-0.897540,-1.581844,-1.757307,-1.669575,-1.388835,-1.090549,-0.897540,-0.792262,-0.792262,-0.774716,-0.669438,-0.599253,-0.546614,-0.493975,-0.441337,-0.493975,-0.476429,-0.493975,-0.599253,-0.634345,-0.634345,-0.599253,-0.599253,-0.529068,-0.458883,-0.458883,-0.441337,-0.441337,-0.458883,-0.458883,-0.441337,-0.529068,-0.511522,-0.546614,-0.511522,-0.441337,-0.423790,-0.300966,-0.336059,-0.318513,-0.318513,-0.283420,-0.336059,-0.300966,-0.336059,-0.371151,-0.283420,-0.230781,-0.213235,-0.143050,-0.107957,-0.090411,-0.125504,-0.125504,-0.143050,-0.107957,-0.125504,-0.107957,-0.037772,-0.037772,0.049959,0.120144,0.190329,0.155237,0.190329,0.242968,0.190329,0.242968,0.242968,0.260514,0.313153,0.418431,0.435977,0.541255,0.611440,0.681625,0.664078,0.769356,0.734264,0.786902,0.839541,0.927272,0.979911,1.067643,1.190467,1.295744,1.330837,1.383476,1.418568,1.418568,1.436114,1.436114,1.453661,1.471207,1.541392,1.576484,1.611577,1.716855,1.751947,1.734401,1.716855,1.646670,1.664216,1.594031,1.541392,1.488753,1.471207,1.383476,1.401022,1.313290,1.225559,1.137828,0.927272,0.804449,0.751810,0.541255,0.471069,0.348246,0.295607,0.190329,0.102598,0.120144,0.014866,-0.037772,-0.125504,-0.160596,-0.265874,-0.353605,-0.423790,-0.493975,1.000000,117.000000
2.226060,-0.604555,-0.554307,-0.571056,-0.621304,-0.621304,-0.638053,-0.671552,-0.705050,-0.621304,-0.671552,-0.654802,-0.571056,-0.554307,-0.470561,-0.520809,-0.554307,-0.587806,-0.638053,-0.621304,-0.654802,-0.721799,-0.705050,-0.671552,-0.604555,-0.554307,-0.504060,-0.504060,-0.520809,-0.554307,-0.587806,-0.638053,-0.654802,-0.671552,-0.604555,-0.554307,-0.621304,-0.604555,-0.554307,-0.587806,-0.621304,-0.604555,-0.654802,-0.671552,-0.688301,-0.654802,-0.654802,-0.621304,-0.604555,-0.537558,-0.554307,-0.587806,-0.587806,-0.587806,-0.587806,-0.571056,-0.587806,-0.571056,-0.587806,-0.604555,-0.571056,-0.504060,-0.504060,-0.470561,-0.487310,-0.520809,-0.554307,-0.571056,-0.621304,-0.638053,-0.587806,-0.504060,-0.420314,-0.353317,-0.269571,-0.286320,-0.236072,-0.219323,-0.185825,-0.185825,-0.102079,-0.085330,-0.018333,0.031915,0.015166,0.065413,0.098912,0.031915,0.015166,-0.051831,-0.085330,-0.185825,-0.219323,-0.252822,-0.286320,-0.353317,-0.336568,-0.353317,-0.386815,-0.370066,-0.437063,-0.403564,-0.504060,-0.520809,-0.537558,-0.571056,-0.587806,-0.520809,-0.520809,-0.520809,-0.453812,-0.470561,-0.520809,-0.554307,-0.571056,-0.638053,-0.638053,-0.638053,-0.638053,-0.638053,-0.554307,-0.504060,-0.470561,-0.504060,-0.504060,-0.587806,-0.587806,-0.587806,-0.554307,-0.353317,-0.102079,0.484143,1.187610,1.924574,2.812282,3.616243,4.336459,4.738440,4.738440,4.353208,3.565996,2.460549,1.137362,-0.236072,-1.408516,-2.145481,-2.279475,-2.011487,-1.626256,-1.257773,-1.073532,-0.989786,-0.906040,-0.872542,-0.772047,-0.638053,-0.520809,-0.437063,-0.420314,-0.420314,-0.487310,-0.504060,-0.554307,-0.537558,-0.504060,-0.571056,-0.520809,-0.453812,-0.470561,-0.420314,-0.353317,-0.403564,-0.403564,-0.403564,-0.420314,-0.487310,-0.520809,-0.453812,-0.420314,-0.353317,-0.336568,-0.336568,-0.269571,-0.286320,-0.319818,-0.319818,-0.319818,-0.336568,-0.336568,-0.319818,-0.252822,-0.236072,-0.252822,-0.169076,-0.169076,-0.102079,-0.118828,-0.135577,-0.169076,-0.185825,-0.169076,-0.169076,-0.135577,-0.051831,-0.035082,0.015166,0.048664,0.098912,0.115661,0.165908,0.132410,0.182658,0.165908,0.216156,0.182658,0.249654,0.350150,0.417146,0.500892,0.500892,0.601388,0.618137,0.601388,0.651635,0.701883,0.718632,0.819127,0.919622,1.020118,1.103864,1.137362,1.170860,1.170860,1.254606,1.254606,1.321603,1.321603,1.355102,1.405349,1.472346,1.539343,1.606340,1.673336,1.589590,1.690086,1.656587,1.606340,1.556092,1.589590,1.556092,1.556092,1.589590,1.589590,1.572841,1.489095,1.438848,1.355102,1.254606,1.154111,1.036867,0.936372,0.852626,0.802378,0.668384,0.584638,0.551140,0.450645,0.316651,0.232905,0.098912,-0.035082,-0.118828,-0.169076,-0.286320,-0.353317,1.000000,117.000000
2.405569,-0.727094,-0.657480,-0.622672,-0.692287,-0.657480,-0.674883,-0.727094,-0.744498,-0.744498,-0.779305,-0.744498,-0.692287,-0.674883,-0.605269,-0.587865,-0.605269,-0.640076,-0.622672,-0.674883,-0.674883,-0.657480,-0.709691,-0.605269,-0.640076,-0.605269,-0.570461,-0.570461,-0.587865,-0.587865,-0.622672,-0.605269,-0.674883,-0.657480,-0.674883,-0.709691,-0.692287,-0.640076,-0.605269,-0.535654,-0.553058,-0.570461,-0.570461,-0.622672,-0.657480,-0.657480,-0.692287,-0.709691,-0.605269,-0.570461,-0.553058,-0.535654,-0.535654,-0.587865,-0.640076,-0.640076,-0.674883,-0.674883,-0.657480,-0.709691,-0.640076,-0.605269,-0.535654,-0.587865,-0.570461,-0.587865,-0.535654,-0.587865,-0.622672,-0.657480,-0.640076,-0.640076,-0.622672,-0.535654,-0.466039,-0.344213,-0.379021,-0.274599,-0.274599,-0.292002,-0.239791,-0.257195,-0.222387,-0.100562,-0.030947,0.003860,0.073475,0.038668,0.021264,-0.013543,-0.048351,-0.083158,-0.117965,-0.135369,-0.257195,-0.292002,-0.274599,-0.309406,-0.344213,-0.361617,-0.431232,-0.483443,-0.518250,-0.587865,-0.640076,-0.674883,-0.622672,-0.657480,-0.587865,-0.622672,-0.570461,-0.570461,-0.535654,-0.605269,-0.570461,-0.587865,-0.674883,-0.640076,-0.657480,-0.657480,-0.605269,-0.570461,-0.553058,-0.518250,-0.431232,-0.518250,-0.535654,-0.640076,-0.622672,-0.518250,-0.274599,0.143090,0.717412,1.448366,2.266340,3.084313,3.884883,4.546223,4.894296,4.842085,4.389589,3.536809,2.388165,1.152504,-0.048351,-0.988150,-1.510260,-1.527664,-1.318820,-0.970746,-0.814113,-0.709691,-0.605269,-0.605269,-0.622672,-0.622672,-0.535654,-0.500846,-0.500846,-0.466039,-0.500846,-0.500846,-0.535654,-0.518250,-0.570461,-0.553058,-0.553058,-0.553058,-0.466039,-0.431232,-0.396424,-0.326810,-0.309406,-0.326810,-0.379021,-0.396424,-0.379021,-0.431232,-0.448635,-0.326810,-0.326810,-0.309406,-0.222387,-0.222387,-0.152773,-0.170176,-0.274599,-0.239791,-0.257195,-0.239791,-0.257195,-0.274599,-0.170176,-0.117965,-0.083158,-0.100562,-0.048351,-0.100562,-0.117965,-0.135369,-0.135369,-0.135369,-0.152773,-0.048351,0.003860,-0.030947,0.003860,0.056072,0.108283,0.090879,0.125686,0.177897,0.143090,0.143090,0.160494,0.264916,0.317127,0.456356,0.491164,0.578182,0.578182,0.682604,0.717412,0.717412,0.752219,0.821834,0.856641,0.908852,0.978467,1.135100,1.222118,1.274330,1.361348,1.361348,1.413559,1.430963,1.448366,1.483174,1.500577,1.552789,1.622403,1.657211,1.709422,1.744229,1.692018,1.692018,1.674614,1.657211,1.570192,1.517981,1.465770,1.465770,1.448366,1.343944,1.291733,1.187311,1.135100,1.048082,0.874045,0.734815,0.578182,0.473760,0.404145,0.317127,0.264916,0.230108,0.143090,0.073475,-0.048351,-0.065754,-0.152773,-0.257195,-0.292002,-0.309406,-0.379021,1.000000,117.000000
1.671542,-0.844110,-0.844110,-0.828771,-0.859449,-0.859449,-0.874789,-0.890128,-0.905467,-0.828771,-0.813431,-0.844110,-0.767413,-0.782753,-0.798092,-0.813431,-0.828771,-0.859449,-0.859449,-0.859449,-0.828771,-0.813431,-0.798092,-0.767413,-0.706056,-0.675377,-0.736735,-0.782753,-0.782753,-0.767413,-0.828771,-0.798092,-0.844110,-0.767413,-0.767413,-0.782753,-0.752074,-0.721395,-0.736735,-0.752074,-0.752074,-0.736735,-0.782753,-0.828771,-0.782753,-0.736735,-0.706056,-0.706056,-0.660038,-0.644699,-0.660038,-0.660038,-0.721395,-0.752074,-0.752074,-0.721395,-0.736735,-0.644699,-0.690717,-0.644699,-0.675377,-0.644699,-0.644699,-0.614020,-0.675377,-0.690717,-0.752074,-0.721395,-0.736735,-0.721395,-0.675377,-0.644699,-0.629359,-0.568002,-0.568002,-0.521984,-0.506644,-0.537323,-0.521984,-0.491305,-0.429948,-0.429948,-0.337912,-0.307233,-0.153840,-0.153840,-0.077143,-0.077143,-0.123161,-0.138500,-0.184518,-0.199858,-0.245876,-0.169179,-0.153840,-0.215197,-0.230536,-0.291894,-0.291894,-0.399269,-0.445287,-0.552662,-0.521984,-0.614020,-0.583341,-0.568002,-0.491305,-0.445287,-0.460626,-0.429948,-0.521984,-0.537323,-0.614020,-0.690717,-0.660038,-0.675377,-0.675377,-0.629359,-0.629359,-0.614020,-0.598681,-0.598681,-0.598681,-0.568002,-0.583341,-0.614020,-0.583341,-0.644699,-0.568002,-0.414608,-0.138500,0.383037,0.935254,1.548827,2.285116,3.021404,3.604299,3.972443,4.033800,3.788371,3.190137,2.285116,1.272719,0.122268,-0.828771,-1.580398,-1.902524,-1.733792,-1.488362,-1.242933,-1.058861,-0.905467,-0.859449,-0.660038,-0.568002,-0.552662,-0.445287,-0.414608,-0.368590,-0.368590,-0.460626,-0.475966,-0.475966,-0.521984,-0.491305,-0.460626,-0.353251,-0.322572,-0.276554,-0.245876,-0.245876,-0.291894,-0.307233,-0.322572,-0.383930,-0.368590,-0.307233,-0.307233,-0.230536,-0.199858,-0.169179,-0.123161,-0.153840,-0.138500,-0.199858,-0.184518,-0.215197,-0.261215,-0.199858,-0.123161,-0.123161,-0.092482,-0.092482,-0.015786,-0.046464,-0.077143,-0.061804,-0.061804,-0.046464,-0.015786,-0.000446,0.030232,0.076250,0.091590,0.106929,0.183626,0.168287,0.183626,0.214305,0.183626,0.198965,0.183626,0.291001,0.275662,0.367698,0.413716,0.505752,0.490413,0.521091,0.551770,0.567109,0.613127,0.643806,0.689824,0.797199,0.889236,0.981272,1.027290,1.119326,1.196022,1.242040,1.334076,1.334076,1.380094,1.426112,1.518148,1.518148,1.640863,1.702221,1.686881,1.748239,1.840275,1.824935,1.870953,1.855614,1.824935,1.809596,1.855614,1.824935,1.840275,1.886293,1.886293,1.901632,1.901632,1.809596,1.717560,1.579506,1.533488,1.395434,1.303398,1.288058,1.196022,1.103986,1.027290,0.919914,0.812539,0.689824,0.505752,0.398377,0.306341,0.214305,0.122268,0.137608,0.076250,0.076250,1.000000,117.000000
1.691951,-0.526869,-0.578072,-0.578072,-0.629276,-0.646344,-0.629276,-0.697547,-0.595140,-0.543937,-0.543937,-0.526869,-0.543937,-0.526869,-0.578072,-0.595140,-0.595140,-0.646344,-0.680479,-0.612208,-0.629276,-0.595140,-0.561005,-0.526869,-0.526869,-0.475665,-0.543937,-0.561005,-0.595140,-0.646344,-0.612208,-0.595140,-0.526869,-0.526869,-0.509801,-0.424462,-0.441530,-0.509801,-0.509801,-0.492733,-0.526869,-0.595140,-0.561005,-0.595140,-0.578072,-0.543937,-0.509801,-0.509801,-0.543937,-0.475665,-0.509801,-0.526869,-0.578072,-0.612208,-0.646344,-0.612208,-0.595140,-0.543937,-0.543937,-0.561005,-0.509801,-0.509801,-0.526869,-0.646344,-0.629276,-0.629276,-0.612208,-0.612208,-0.561005,-0.526869,-0.509801,-0.526869,-0.509801,-0.492733,-0.458597,-0.509801,-0.475665,-0.475665,-0.492733,-0.407394,-0.373258,-0.253783,-0.185512,-0.066037,-0.031901,-0.014834,-0.048969,-0.083105,-0.134308,-0.117241,-0.185512,-0.185512,-0.219648,-0.168444,-0.151376,-0.202580,-0.287919,-0.287919,-0.356190,-0.492733,-0.492733,-0.561005,-0.595140,-0.578072,-0.561005,-0.543937,-0.561005,-0.561005,-0.578072,-0.578072,-0.612208,-0.697547,-0.714615,-0.731683,-0.748751,-0.714615,-0.731683,-0.680479,-0.646344,-0.578072,-0.561005,-0.561005,-0.543937,-0.578072,-0.663412,-0.697547,-0.680479,-0.714615,-0.663412,-0.526869,-0.270851,0.224116,0.804423,1.674883,2.511207,3.364600,4.132653,4.695892,4.866570,4.491077,3.740092,2.596547,1.401798,0.104641,-0.936497,-1.602143,-1.721618,-1.516804,-1.226650,-0.987701,-0.834090,-0.731683,-0.663412,-0.663412,-0.543937,-0.543937,-0.475665,-0.475665,-0.492733,-0.543937,-0.629276,-0.629276,-0.697547,-0.697547,-0.697547,-0.629276,-0.561005,-0.509801,-0.543937,-0.543937,-0.561005,-0.526869,-0.543937,-0.578072,-0.526869,-0.475665,-0.424462,-0.458597,-0.373258,-0.390326,-0.390326,-0.339123,-0.356190,-0.373258,-0.356190,-0.424462,-0.390326,-0.373258,-0.356190,-0.304987,-0.236715,-0.185512,-0.202580,-0.117241,-0.185512,-0.202580,-0.236715,-0.202580,-0.219648,-0.185512,-0.151376,-0.066037,-0.014834,0.053438,0.053438,0.104641,0.070506,0.087574,0.053438,0.087574,0.087574,0.172913,0.224116,0.326523,0.343591,0.428930,0.463066,0.497202,0.497202,0.548405,0.565473,0.599609,0.616677,0.753219,0.838559,0.889762,1.009237,1.094576,1.179916,1.231119,1.265255,1.265255,1.350594,1.350594,1.401798,1.435933,1.504205,1.606612,1.674883,1.760222,1.794358,1.794358,1.811426,1.811426,1.743154,1.760222,1.760222,1.760222,1.794358,1.760222,1.743154,1.743154,1.657815,1.521272,1.435933,1.333526,1.265255,1.111644,0.975101,0.855627,0.753219,0.719084,0.599609,0.497202,0.411863,0.360659,0.224116,0.036370,-0.014834,-0.134308,-0.168444,-0.219648,-0.270851,-0.287919,-0.253783,1.000000,117.000000
1.398255,-0.721820,-0.773112,-0.756015,-0.721820,-0.807307,-0.807307,-0.841502,-0.824404,-0.790210,-0.756015,-0.738918,-0.756015,-0.670528,-0.653431,-0.636333,-0.653431,-0.704723,-0.721820,-0.773112,-0.721820,-0.721820,-0.687625,-0.653431,-0.585041,-0.533749,-0.619236,-0.653431,-0.704723,-0.670528,-0.704723,-0.738918,-0.756015,-0.687625,-0.670528,-0.636333,-0.585041,-0.550846,-0.550846,-0.636333,-0.619236,-0.704723,-0.670528,-0.721820,-0.721820,-0.653431,-0.653431,-0.619236,-0.585041,-0.533749,-0.533749,-0.619236,-0.670528,-0.670528,-0.653431,-0.670528,-0.670528,-0.653431,-0.636333,-0.636333,-0.567944,-0.533749,-0.619236,-0.602139,-0.687625,-0.670528,-0.704723,-0.687625,-0.653431,-0.636333,-0.619236,-0.585041,-0.567944,-0.533749,-0.585041,-0.533749,-0.516652,-0.516652,-0.499554,-0.431165,-0.448262,-0.379873,-0.294386,-0.225996,-0.123412,-0.037925,-0.003730,-0.003730,-0.037925,-0.003730,-0.106315,-0.089217,-0.072120,-0.106315,-0.106315,-0.106315,-0.089217,-0.123412,-0.157607,-0.260191,-0.362775,-0.448262,-0.533749,-0.585041,-0.567944,-0.550846,-0.499554,-0.550846,-0.482457,-0.482457,-0.533749,-0.567944,-0.636333,-0.670528,-0.704723,-0.653431,-0.653431,-0.687625,-0.653431,-0.585041,-0.619236,-0.567944,-0.636333,-0.636333,-0.636333,-0.653431,-0.687625,-0.670528,-0.721820,-0.687625,-0.567944,-0.311483,0.115951,0.868236,1.603423,2.475389,3.364453,4.185127,4.629659,4.646756,4.150932,3.159284,1.979565,0.543386,-0.585041,-1.405715,-1.662176,-1.576689,-1.268936,-0.978281,-0.738918,-0.619236,-0.619236,-0.550846,-0.499554,-0.414067,-0.414067,-0.396970,-0.414067,-0.414067,-0.431165,-0.465360,-0.516652,-0.499554,-0.516652,-0.448262,-0.414067,-0.396970,-0.345678,-0.328580,-0.311483,-0.362775,-0.362775,-0.396970,-0.379873,-0.414067,-0.396970,-0.379873,-0.328580,-0.311483,-0.277288,-0.208899,-0.208899,-0.260191,-0.191801,-0.260191,-0.294386,-0.294386,-0.243094,-0.208899,-0.208899,-0.123412,-0.089217,-0.089217,-0.072120,-0.072120,-0.140509,-0.140509,-0.140509,-0.140509,-0.072120,-0.055022,0.013367,0.064659,0.081757,0.184341,0.201438,0.218536,0.218536,0.235633,0.252730,0.235633,0.338217,0.389509,0.474996,0.543386,0.628873,0.731457,0.816944,0.765652,0.834041,0.868236,0.953723,1.022112,1.090502,1.175989,1.278573,1.381157,1.483741,1.569228,1.552131,1.603423,1.688910,1.637618,1.706007,1.723105,1.757299,1.740202,1.859884,1.911176,1.928273,2.030858,1.996663,1.962468,1.945371,1.842786,1.791494,1.740202,1.688910,1.620520,1.586326,1.500839,1.449547,1.398255,1.210183,1.090502,0.953723,0.816944,0.714359,0.543386,0.457899,0.389509,0.338217,0.235633,0.218536,0.098854,0.013367,-0.055022,-0.140509,-0.260191,-0.294386,-0.328580,-0.362775,-0.379873,-0.328580,1.000000,117.000000
1.093018,-0.626064,-0.577411,-0.577411,-0.544975,-0.544975,-0.593629,-0.609846,-0.593629,-0.658500,-0.642282,-0.609846,-0.593629,-0.577411,-0.609846,-0.577411,-0.593629,-0.593629,-0.642282,-0.609846,-0.561193,-0.674717,-0.674717,-0.626064,-0.642282,-0.593629,-0.577411,-0.512540,-0.561193,-0.544975,-0.544975,-0.609846,-0.593629,-0.609846,-0.577411,-0.593629,-0.642282,-0.593629,-0.561193,-0.561193,-0.528758,-0.512540,-0.544975,-0.577411,-0.609846,-0.658500,-0.690935,-0.690935,-0.690935,-0.626064,-0.561193,-0.544975,-0.544975,-0.528758,-0.544975,-0.528758,-0.561193,-0.593629,-0.642282,-0.626064,-0.642282,-0.561193,-0.544975,-0.544975,-0.528758,-0.512540,-0.496322,-0.496322,-0.528758,-0.528758,-0.544975,-0.544975,-0.561193,-0.528758,-0.415233,-0.415233,-0.382798,-0.301709,-0.301709,-0.253056,-0.253056,-0.253056,-0.236838,-0.171967,-0.058443,-0.026007,-0.026007,0.022646,0.071299,0.006428,-0.009790,-0.058443,-0.123314,-0.139532,-0.188185,-0.253056,-0.285491,-0.285491,-0.382798,-0.350362,-0.366580,-0.447669,-0.447669,-0.496322,-0.544975,-0.626064,-0.609846,-0.626064,-0.609846,-0.561193,-0.609846,-0.593629,-0.528758,-0.528758,-0.593629,-0.626064,-0.642282,-0.707153,-0.690935,-0.707153,-0.690935,-0.609846,-0.593629,-0.609846,-0.561193,-0.577411,-0.577411,-0.609846,-0.690935,-0.674717,-0.480104,-0.220620,0.314565,1.028147,1.871470,2.795882,3.671640,4.271697,4.742012,4.644705,4.109519,3.136454,1.903905,0.492961,-0.869330,-1.777525,-2.247839,-2.150533,-1.712654,-1.372081,-1.063944,-0.853113,-0.820677,-0.739588,-0.674717,-0.626064,-0.561193,-0.528758,-0.463887,-0.399016,-0.382798,-0.447669,-0.463887,-0.512540,-0.496322,-0.577411,-0.496322,-0.561193,-0.496322,-0.496322,-0.382798,-0.399016,-0.334145,-0.301709,-0.334145,-0.382798,-0.382798,-0.366580,-0.415233,-0.447669,-0.350362,-0.366580,-0.269274,-0.285491,-0.204403,-0.269274,-0.236838,-0.253056,-0.317927,-0.285491,-0.317927,-0.269274,-0.220620,-0.171967,-0.139532,-0.090878,-0.074661,-0.058443,-0.042225,-0.058443,-0.107096,-0.074661,-0.058443,0.022646,0.006428,0.119952,0.152388,0.233477,0.298348,0.298348,0.330783,0.314565,0.330783,0.379436,0.444307,0.411872,0.509178,0.606485,0.622703,0.736227,0.865969,0.849751,0.914622,0.930840,0.995711,1.060582,1.060582,1.157889,1.238977,1.336284,1.417373,1.498461,1.563332,1.595768,1.628203,1.628203,1.693074,1.693074,1.676857,1.725510,1.774163,1.839034,1.903905,1.903905,1.903905,1.936341,1.839034,1.839034,1.725510,1.676857,1.563332,1.466026,1.417373,1.303848,1.238977,1.141671,1.076800,0.947058,0.817316,0.720009,0.525396,0.411872,0.298348,0.168606,0.103735,0.071299,0.022646,-0.042225,-0.042225,-0.107096,-0.220620,-0.285491,-0.334145,-0.382798,-0.447669,1.000000,117.000000
0.987963,-0.668882,-0.718095,-0.718095,-0.767309,-0.767309,-0.750904,-0.734500,-0.652478,-0.652478,-0.636073,-0.652478,-0.668882,-0.652478,-0.701691,-0.750904,-0.767309,-0.685286,-0.767309,-0.734500,-0.718095,-0.636073,-0.652478,-0.586860,-0.603264,-0.685286,-0.701691,-0.750904,-0.816522,-0.734500,-0.701691,-0.701691,-0.636073,-0.619669,-0.570456,-0.652478,-0.619669,-0.652478,-0.718095,-0.783713,-0.718095,-0.734500,-0.701691,-0.668882,-0.685286,-0.652478,-0.619669,-0.668882,-0.668882,-0.685286,-0.668882,-0.701691,-0.685286,-0.701691,-0.668882,-0.636073,-0.619669,-0.570456,-0.504838,-0.537647,-0.586860,-0.570456,-0.619669,-0.570456,-0.636073,-0.636073,-0.586860,-0.586860,-0.537647,-0.537647,-0.488434,-0.455625,-0.488434,-0.488434,-0.472029,-0.472029,-0.439220,-0.439220,-0.406412,-0.324390,-0.258772,-0.225963,-0.094728,-0.094728,-0.045515,-0.029110,-0.029110,-0.094728,-0.094728,-0.061919,-0.061919,-0.061919,-0.045515,-0.061919,-0.078324,-0.127537,-0.209559,-0.242368,-0.357198,-0.455625,-0.472029,-0.554051,-0.619669,-0.619669,-0.619669,-0.570456,-0.554051,-0.570456,-0.619669,-0.685286,-0.718095,-0.750904,-0.783713,-0.800117,-0.767309,-0.750904,-0.750904,-0.685286,-0.701691,-0.718095,-0.652478,-0.734500,-0.750904,-0.685286,-0.750904,-0.718095,-0.685286,-0.668882,-0.636073,-0.554051,-0.340794,-0.029110,0.528639,1.201220,2.005036,2.808851,3.629072,4.301652,4.662549,4.629740,4.236035,3.415814,2.382337,1.201220,0.036507,-0.882139,-1.439889,-1.472698,-1.308654,-1.046183,-0.816522,-0.652478,-0.570456,-0.521242,-0.504838,-0.439220,-0.422816,-0.439220,-0.455625,-0.504838,-0.504838,-0.521242,-0.554051,-0.472029,-0.488434,-0.472029,-0.422816,-0.390007,-0.390007,-0.439220,-0.422816,-0.488434,-0.537647,-0.504838,-0.488434,-0.439220,-0.439220,-0.406412,-0.373603,-0.390007,-0.340794,-0.373603,-0.390007,-0.422816,-0.406412,-0.455625,-0.373603,-0.324390,-0.340794,-0.291581,-0.209559,-0.160346,-0.225963,-0.242368,-0.242368,-0.209559,-0.225963,-0.176750,-0.176750,-0.078324,-0.045515,-0.012706,0.020103,0.069316,0.036507,0.102125,0.020103,0.085720,0.102125,0.102125,0.102125,0.200551,0.200551,0.348191,0.397404,0.413809,0.430213,0.463022,0.479426,0.495831,0.430213,0.561448,0.643470,0.709088,0.791110,0.873132,0.987963,1.037176,1.086389,1.102793,1.119198,1.217624,1.250433,1.266838,1.332455,1.447286,1.480095,1.594926,1.660543,1.660543,1.726161,1.726161,1.742565,1.709756,1.676948,1.709756,1.726161,1.808183,1.808183,1.808183,1.824587,1.775374,1.693352,1.627734,1.529308,1.430882,1.250433,1.201220,1.069985,0.987963,0.955154,0.922345,0.807514,0.659875,0.643470,0.479426,0.413809,0.315382,0.216956,0.134934,0.151338,0.052912,0.003698,0.036507,0.052912,1.000000,117.000000
0.250123,-0.771041,-0.725317,-0.725317,-0.771041,-0.771041,-0.771041,-0.786282,-0.847247,-0.816765,-0.801523,-0.816765,-0.755800,-0.725317,-0.755800,-0.664352,-0.771041,-0.740558,-0.755800,-0.801523,-0.832006,-0.832006,-0.832006,-0.832006,-0.771041,-0.755800,-0.710076,-0.725317,-0.664352,-0.725317,-0.755800,-0.740558,-0.771041,-0.786282,-0.755800,-0.725317,-0.694835,-0.633870,-0.649111,-0.649111,-0.588146,-0.664352,-0.694835,-0.755800,-0.740558,-0.710076,-0.740558,-0.725317,-0.664352,-0.679593,-0.664352,-0.679593,-0.649111,-0.633870,-0.649111,-0.679593,-0.786282,-0.710076,-0.664352,-0.633870,-0.603387,-0.557663,-0.557663,-0.572905,-0.588146,-0.618628,-0.557663,-0.633870,-0.633870,-0.694835,-0.633870,-0.511940,-0.511940,-0.420492,-0.344286,-0.344286,-0.329045,-0.283321,-0.268080,-0.313803,-0.298562,-0.298562,-0.237597,-0.161391,-0.130908,-0.130908,-0.115667,-0.130908,-0.146150,-0.161391,-0.191873,-0.268080,-0.298562,-0.329045,-0.359527,-0.405251,-0.405251,-0.450975,-0.466216,-0.481457,-0.572905,-0.527181,-0.588146,-0.588146,-0.649111,-0.633870,-0.649111,-0.603387,-0.603387,-0.603387,-0.603387,-0.588146,-0.572905,-0.618628,-0.603387,-0.679593,-0.679593,-0.710076,-0.679593,-0.618628,-0.588146,-0.588146,-0.527181,-0.511940,-0.557663,-0.481457,-0.511940,-0.557663,-0.542422,-0.420492,-0.130908,0.326329,0.966461,1.682800,2.383897,3.191683,3.755609,4.151882,4.228088,3.877539,3.222166,2.261967,1.134115,-0.100426,-1.167313,-1.883652,-2.066547,-1.883652,-1.517862,-1.213037,-0.999659,-0.862488,-0.816765,-0.771041,-0.633870,-0.572905,-0.481457,-0.450975,-0.405251,-0.405251,-0.420492,-0.450975,-0.481457,-0.496698,-0.527181,-0.481457,-0.481457,-0.450975,-0.405251,-0.390010,-0.359527,-0.298562,-0.359527,-0.344286,-0.344286,-0.374768,-0.405251,-0.405251,-0.374768,-0.329045,-0.252838,-0.252838,-0.191873,-0.146150,-0.085185,-0.130908,-0.130908,-0.130908,-0.146150,-0.130908,-0.130908,-0.054702,-0.115667,-0.054702,-0.008978,-0.024220,0.051987,0.036745,0.021504,0.051987,0.051987,0.036745,0.143434,0.158675,0.173916,0.219640,0.250123,0.311088,0.265364,0.295846,0.295846,0.280605,0.265364,0.326329,0.372053,0.493983,0.493983,0.600671,0.676878,0.676878,0.722601,0.737843,0.783566,0.829290,0.783566,0.920738,0.935979,1.042667,1.149356,1.179839,1.256045,1.332251,1.408457,1.454181,1.454181,1.515146,1.530387,1.591352,1.621835,1.713282,1.804730,1.850454,1.880936,1.926660,1.941901,1.926660,1.911419,1.926660,1.880936,1.880936,1.850454,1.880936,1.804730,1.789489,1.728524,1.698041,1.530387,1.423699,1.256045,1.134115,1.012185,0.859773,0.768325,0.692119,0.600671,0.524465,0.509224,0.402535,0.341570,0.189158,0.158675,0.036745,-0.024220,-0.115667,-0.161391,1.000000,117.000000
0.561225,-0.387082,-0.332372,-0.387082,-0.405318,-0.460028,-0.460028,-0.478265,-0.460028,-0.387082,-0.405318,-0.387082,-0.350608,-0.332372,-0.405318,-0.441792,-0.387082,-0.478265,-0.423555,-0.441792,-0.441792,-0.423555,-0.368845,-0.368845,-0.314135,-0.350608,-0.387082,-0.387082,-0.387082,-0.460028,-0.478265,-0.478265,-0.460028,-0.368845,-0.350608,-0.314135,-0.350608,-0.350608,-0.387082,-0.387082,-0.405318,-0.405318,-0.423555,-0.405318,-0.441792,-0.387082,-0.314135,-0.314135,-0.332372,-0.314135,-0.350608,-0.350608,-0.405318,-0.478265,-0.478265,-0.460028,-0.423555,-0.460028,-0.368845,-0.368845,-0.405318,-0.423555,-0.405318,-0.478265,-0.496502,-0.478265,-0.514738,-0.496502,-0.496502,-0.460028,-0.368845,-0.423555,-0.332372,-0.277662,-0.277662,-0.241188,-0.314135,-0.241188,-0.241188,-0.168242,-0.095295,-0.040585,0.068835,0.105309,0.105309,0.050598,0.068835,-0.004112,-0.058822,-0.131768,-0.095295,-0.113532,-0.186478,-0.077058,-0.186478,-0.222952,-0.277662,-0.350608,-0.405318,-0.514738,-0.569448,-0.642395,-0.605922,-0.624158,-0.569448,-0.569448,-0.605922,-0.532975,-0.551212,-0.569448,-0.605922,-0.642395,-0.660632,-0.733578,-0.715342,-0.697105,-0.715342,-0.642395,-0.605922,-0.587685,-0.605922,-0.605922,-0.587685,-0.660632,-0.642395,-0.678868,-0.715342,-0.678868,-0.660632,-0.551212,-0.222952,0.269439,0.907722,1.691899,2.530786,3.424383,4.208560,4.883317,5.266287,5.156867,4.664477,3.770880,2.585496,1.345402,0.050598,-0.988892,-1.590702,-1.718359,-1.535992,-1.244205,-0.952419,-0.824762,-0.678868,-0.605922,-0.587685,-0.569448,-0.532975,-0.551212,-0.532975,-0.569448,-0.624158,-0.697105,-0.697105,-0.697105,-0.678868,-0.660632,-0.642395,-0.605922,-0.532975,-0.551212,-0.569448,-0.532975,-0.605922,-0.678868,-0.660632,-0.624158,-0.624158,-0.587685,-0.532975,-0.478265,-0.441792,-0.423555,-0.405318,-0.478265,-0.460028,-0.478265,-0.460028,-0.460028,-0.478265,-0.423555,-0.350608,-0.368845,-0.295898,-0.295898,-0.259425,-0.295898,-0.332372,-0.332372,-0.368845,-0.368845,-0.295898,-0.259425,-0.204715,-0.113532,-0.095295,-0.131768,-0.095295,-0.131768,-0.077058,-0.058822,-0.077058,-0.040585,-0.022348,0.087072,0.160019,0.214729,0.324149,0.342385,0.360622,0.360622,0.378859,0.415332,0.433569,0.542989,0.725355,0.652409,0.871249,0.871249,0.925959,0.962432,0.980669,1.071852,1.071852,1.035379,1.126562,1.181272,1.363639,1.345402,1.473059,1.473059,1.527769,1.546006,1.582479,1.582479,1.527769,1.509532,1.564242,1.546006,1.527769,1.527769,1.564242,1.509532,1.509532,1.363639,1.308929,1.108326,0.998906,0.834775,0.725355,0.615935,0.579462,0.470042,0.360622,0.360622,0.214729,0.050598,-0.004112,-0.168242,-0.295898,-0.387082,-0.460028,-0.496502,-0.532975,-0.569448,-0.551212,1.000000,117.000000
1.390555,-0.562994,-0.508221,-0.508221,-0.489964,-0.526479,-0.581251,-0.599509,-0.617766,-0.599509,-0.636024,-0.617766,-0.562994,-0.489964,-0.471707,-0.435192,-0.489964,-0.471707,-0.489964,-0.544736,-0.508221,-0.508221,-0.526479,-0.581251,-0.453449,-0.471707,-0.435192,-0.398677,-0.453449,-0.435192,-0.453449,-0.526479,-0.526479,-0.526479,-0.544736,-0.489964,-0.526479,-0.416934,-0.380419,-0.398677,-0.453449,-0.453449,-0.489964,-0.544736,-0.544736,-0.599509,-0.544736,-0.544736,-0.435192,-0.526479,-0.453449,-0.453449,-0.471707,-0.508221,-0.526479,-0.581251,-0.654281,-0.617766,-0.581251,-0.617766,-0.581251,-0.435192,-0.471707,-0.416934,-0.526479,-0.562994,-0.544736,-0.599509,-0.690796,-0.654281,-0.599509,-0.489964,-0.435192,-0.453449,-0.307389,-0.234359,-0.234359,-0.179587,-0.143072,-0.124815,-0.088300,-0.051785,0.002988,-0.033527,0.039503,0.002988,0.021245,0.002988,0.002988,-0.070042,-0.106557,-0.161330,-0.216102,-0.307389,-0.325647,-0.380419,-0.343904,-0.380419,-0.380419,-0.380419,-0.435192,-0.435192,-0.453449,-0.562994,-0.562994,-0.599509,-0.599509,-0.654281,-0.599509,-0.562994,-0.599509,-0.544736,-0.581251,-0.581251,-0.617766,-0.617766,-0.672539,-0.727311,-0.727311,-0.727311,-0.654281,-0.562994,-0.581251,-0.489964,-0.562994,-0.526479,-0.654281,-0.727311,-0.654281,-0.562994,-0.289132,0.240335,0.842831,1.573130,2.467746,3.289332,3.983115,4.549097,4.914246,4.877731,4.275235,3.508421,2.540775,1.335783,0.185562,-0.836856,-1.475867,-1.822759,-1.749729,-1.439352,-1.183748,-0.928143,-0.928143,-0.836856,-0.836856,-0.763826,-0.617766,-0.617766,-0.526479,-0.526479,-0.526479,-0.617766,-0.581251,-0.636024,-0.672539,-0.672539,-0.654281,-0.581251,-0.544736,-0.508221,-0.489964,-0.471707,-0.435192,-0.453449,-0.471707,-0.544736,-0.508221,-0.544736,-0.526479,-0.526479,-0.471707,-0.416934,-0.398677,-0.343904,-0.380419,-0.343904,-0.362162,-0.435192,-0.398677,-0.398677,-0.416934,-0.398677,-0.325647,-0.289132,-0.307389,-0.216102,-0.216102,-0.197845,-0.197845,-0.252617,-0.270874,-0.270874,-0.325647,-0.270874,-0.179587,-0.161330,-0.070042,-0.051785,-0.015270,-0.015270,-0.033527,0.002988,-0.033527,0.039503,-0.033527,0.039503,0.094275,0.203820,0.276850,0.276850,0.313365,0.313365,0.349879,0.404652,0.422909,0.459424,0.514197,0.550712,0.678514,0.769801,0.879346,0.915861,0.952376,0.988891,1.061921,1.098436,1.080178,1.134951,1.134951,1.207980,1.354040,1.445327,1.573130,1.627902,1.646160,1.700932,1.646160,1.700932,1.719189,1.646160,1.609645,1.627902,1.664417,1.700932,1.664417,1.719189,1.500100,1.518357,1.354040,1.281010,1.189723,1.080178,0.952376,0.842831,0.769801,0.715029,0.641999,0.550712,0.422909,0.258592,0.185562,0.057760,-0.106557,-0.252617,-0.252617,1.000000,117.000000
1.844202,-0.460971,-0.496164,-0.531357,-0.584148,-0.619341,-0.601744,-0.654535,-0.636938,-0.548954,-0.496164,-0.513761,-0.513761,-0.531357,-0.513761,-0.548954,-0.601744,-0.619341,-0.619341,-0.672131,-0.636938,-0.636938,-0.548954,-0.531357,-0.513761,-0.460971,-0.478567,-0.531357,-0.548954,-0.548954,-0.584148,-0.601744,-0.566551,-0.566551,-0.478567,-0.478567,-0.425777,-0.443374,-0.496164,-0.548954,-0.531357,-0.619341,-0.584148,-0.566551,-0.513761,-0.460971,-0.443374,-0.460971,-0.443374,-0.425777,-0.443374,-0.496164,-0.566551,-0.548954,-0.601744,-0.584148,-0.584148,-0.496164,-0.531357,-0.443374,-0.408180,-0.408180,-0.408180,-0.443374,-0.443374,-0.513761,-0.566551,-0.584148,-0.548954,-0.566551,-0.425777,-0.425777,-0.355390,-0.320197,-0.267406,-0.320197,-0.267406,-0.232213,-0.232213,-0.232213,-0.161826,-0.056246,0.014141,0.084528,0.084528,0.014141,-0.021052,-0.021052,-0.109036,-0.109036,-0.144229,-0.197019,-0.232213,-0.214616,-0.267406,-0.337793,-0.285003,-0.355390,-0.408180,-0.425777,-0.566551,-0.478567,-0.513761,-0.513761,-0.531357,-0.478567,-0.478567,-0.478567,-0.425777,-0.496164,-0.531357,-0.513761,-0.566551,-0.601744,-0.601744,-0.584148,-0.584148,-0.548954,-0.513761,-0.443374,-0.478567,-0.478567,-0.513761,-0.584148,-0.584148,-0.619341,-0.601744,-0.636938,-0.548954,-0.443374,-0.126633,0.330883,1.017155,1.738622,2.512878,3.322328,4.026197,4.589293,4.800454,4.536503,3.973407,2.970393,1.756218,0.436463,-0.865695,-1.921500,-2.361418,-2.361418,-2.044677,-1.604758,-1.323211,-1.217630,-1.076856,-1.006469,-0.812905,-0.724922,-0.584148,-0.584148,-0.513761,-0.584148,-0.601744,-0.636938,-0.689728,-0.636938,-0.619341,-0.584148,-0.531357,-0.478567,-0.408180,-0.408180,-0.443374,-0.443374,-0.443374,-0.478567,-0.478567,-0.460971,-0.425777,-0.443374,-0.337793,-0.337793,-0.355390,-0.302600,-0.249810,-0.320197,-0.285003,-0.355390,-0.355390,-0.337793,-0.337793,-0.302600,-0.285003,-0.197019,-0.179423,-0.144229,-0.179423,-0.144229,-0.161826,-0.267406,-0.197019,-0.197019,-0.197019,-0.109036,-0.073842,0.014141,0.049335,0.066932,0.066932,0.066932,0.066932,0.014141,0.119722,0.049335,0.172512,0.207705,0.278092,0.278092,0.366076,0.383673,0.383673,0.454060,0.436463,0.471657,0.524447,0.559640,0.612430,0.630027,0.735608,0.841188,0.929172,0.964365,1.034752,1.069946,1.087542,1.140333,1.175526,1.245913,1.263510,1.369090,1.509864,1.527461,1.633041,1.685831,1.703428,1.721025,1.650638,1.685831,1.685831,1.685831,1.721025,1.721025,1.791412,1.703428,1.738622,1.668235,1.492267,1.404284,1.281106,1.175526,1.034752,0.929172,0.841188,0.770801,0.682817,0.630027,0.542043,0.383673,0.278092,0.172512,0.014141,-0.109036,-0.179423,-0.267406,-0.267406,-0.337793,-0.355390,0.000000,117.000000
2.344441,-0.618753,-0.566461,-0.531600,-0.531600,-0.427017,-0.461878,-0.531600,-0.566461,-0.583892,-0.583892,-0.671045,-0.671045,-0.618753,-0.601322,-0.566461,-0.514170,-0.496739,-0.496739,-0.531600,-0.514170,-0.583892,-0.566461,-0.531600,-0.566461,-0.583892,-0.549031,-0.531600,-0.549031,-0.461878,-0.427017,-0.461878,-0.531600,-0.549031,-0.618753,-0.636183,-0.583892,-0.583892,-0.583892,-0.514170,-0.514170,-0.514170,-0.514170,-0.549031,-0.549031,-0.636183,-0.636183,-0.636183,-0.705906,-0.618753,-0.618753,-0.583892,-0.531600,-0.496739,-0.549031,-0.566461,-0.531600,-0.566461,-0.636183,-0.671045,-0.618753,-0.653614,-0.653614,-0.514170,-0.531600,-0.496739,-0.531600,-0.566461,-0.601322,-0.618753,-0.549031,-0.601322,-0.514170,-0.479309,-0.392156,-0.357295,-0.287572,-0.235281,-0.235281,-0.165559,-0.148128,-0.165559,-0.113267,-0.113267,-0.148128,-0.165559,-0.130697,-0.095836,-0.060975,-0.026114,-0.078406,-0.095836,-0.148128,-0.322434,-0.339864,-0.374725,-0.409586,-0.496739,-0.479309,-0.496739,-0.479309,-0.461878,-0.479309,-0.496739,-0.514170,-0.618753,-0.636183,-0.688475,-0.688475,-0.705906,-0.601322,-0.636183,-0.601322,-0.566461,-0.601322,-0.601322,-0.636183,-0.705906,-0.705906,-0.740767,-0.723336,-0.723336,-0.671045,-0.636183,-0.601322,-0.618753,-0.583892,-0.671045,-0.601322,-0.496739,-0.182989,0.287636,0.897705,1.629788,2.466455,3.233399,3.965483,4.575552,4.854441,4.732427,4.209510,3.372844,2.327011,1.281177,0.095900,-0.775628,-1.368267,-1.629725,-1.455419,-1.106808,-0.915072,-0.688475,-0.688475,-0.688475,-0.705906,-0.723336,-0.671045,-0.671045,-0.618753,-0.566461,-0.549031,-0.496739,-0.496739,-0.549031,-0.531600,-0.549031,-0.531600,-0.601322,-0.549031,-0.531600,-0.479309,-0.514170,-0.409586,-0.409586,-0.392156,-0.392156,-0.374725,-0.444447,-0.479309,-0.461878,-0.514170,-0.479309,-0.479309,-0.374725,-0.357295,-0.322434,-0.339864,-0.339864,-0.339864,-0.357295,-0.374725,-0.392156,-0.357295,-0.427017,-0.270142,-0.252711,-0.235281,-0.182989,-0.182989,-0.165559,-0.165559,-0.182989,-0.165559,-0.217850,-0.182989,-0.130697,-0.078406,-0.095836,-0.026114,0.043608,0.043608,0.095900,0.078469,0.061039,0.113330,0.061039,0.113330,0.165622,0.252775,0.357358,0.479372,0.496802,0.566525,0.514233,0.618816,0.653677,0.671108,0.671108,0.758261,0.845414,0.949997,1.019719,1.141733,1.246316,1.281177,1.298608,1.368330,1.368330,1.333469,1.385761,1.420622,1.472913,1.525205,1.560066,1.699511,1.716941,1.699511,1.699511,1.734372,1.699511,1.647219,1.612358,1.560066,1.507775,1.507775,1.525205,1.490344,1.438052,1.316038,1.211455,1.106872,0.949997,0.810552,0.705969,0.601386,0.461941,0.444511,0.339927,0.287636,0.200483,0.113330,-0.043545,-0.113267,-0.165559,-0.252711,1.000000,117.000000
2.064459,-0.637183,-0.605399,-0.510047,-0.589507,-0.573615,-0.653075,-0.605399,-0.684859,-0.653075,-0.653075,-0.653075,-0.605399,-0.621291,-0.557723,-0.541831,-0.589507,-0.621291,-0.637183,-0.653075,-0.684859,-0.716643,-0.653075,-0.653075,-0.621291,-0.605399,-0.637183,-0.653075,-0.605399,-0.621291,-0.668967,-0.637183,-0.732535,-0.653075,-0.637183,-0.637183,-0.605399,-0.621291,-0.589507,-0.557723,-0.605399,-0.637183,-0.637183,-0.668967,-0.684859,-0.716643,-0.700751,-0.684859,-0.605399,-0.541831,-0.557723,-0.589507,-0.589507,-0.653075,-0.684859,-0.700751,-0.732535,-0.716643,-0.684859,-0.700751,-0.668967,-0.605399,-0.589507,-0.589507,-0.605399,-0.573615,-0.621291,-0.668967,-0.637183,-0.637183,-0.573615,-0.589507,-0.525939,-0.398803,-0.367019,-0.319343,-0.303451,-0.303451,-0.287559,-0.335235,-0.287559,-0.255775,-0.192207,-0.112747,-0.065071,-0.033287,0.046174,0.014389,-0.049179,-0.080963,-0.112747,-0.144531,-0.223991,-0.239883,-0.303451,-0.303451,-0.319343,-0.382911,-0.367019,-0.430587,-0.478263,-0.494155,-0.557723,-0.605399,-0.621291,-0.637183,-0.589507,-0.525939,-0.573615,-0.557723,-0.510047,-0.541831,-0.557723,-0.653075,-0.668967,-0.668967,-0.748427,-0.732535,-0.764319,-0.732535,-0.668967,-0.653075,-0.573615,-0.621291,-0.589507,-0.621291,-0.668967,-0.668967,-0.653075,-0.557723,-0.446479,-0.001503,0.491150,1.190398,1.984999,2.795491,3.494740,4.082744,4.352908,4.241664,3.717228,2.859059,1.810187,0.602394,-0.510047,-1.463567,-1.956220,-2.035680,-1.765516,-1.431783,-1.193403,-1.002699,-0.891455,-0.955023,-0.811995,-0.732535,-0.589507,-0.510047,-0.446479,-0.430587,-0.414695,-0.446479,-0.525939,-0.494155,-0.573615,-0.541831,-0.525939,-0.525939,-0.478263,-0.414695,-0.351127,-0.319343,-0.351127,-0.414695,-0.430587,-0.462371,-0.430587,-0.494155,-0.430587,-0.382911,-0.351127,-0.319343,-0.255775,-0.239883,-0.223991,-0.223991,-0.239883,-0.287559,-0.303451,-0.319343,-0.303451,-0.239883,-0.192207,-0.192207,-0.144531,-0.128639,-0.128639,-0.160423,-0.144531,-0.144531,-0.160423,-0.096855,-0.080963,-0.049179,0.014389,0.030282,0.109742,0.157418,0.141526,0.125634,0.157418,0.220986,0.252770,0.332230,0.332230,0.395798,0.427582,0.538826,0.554718,0.650070,0.650070,0.713638,0.697746,0.681854,0.713638,0.777206,0.888450,0.999694,1.095046,1.238074,1.317534,1.381102,1.444670,1.381102,1.444670,1.508238,1.476454,1.540022,1.651266,1.683051,1.778403,1.810187,1.873755,1.905539,1.857863,1.889647,1.889647,1.857863,1.857863,1.841971,1.794295,1.810187,1.778403,1.810187,1.698943,1.619482,1.555914,1.412886,1.285750,1.174506,1.079154,0.904342,0.824882,0.697746,0.665962,0.538826,0.443474,0.348122,0.236878,0.157418,0.046174,-0.033287,-0.160423,-0.208099,-0.271667,1.000000,117.000000
2.339530,-0.503753,-0.520188,-0.454447,-0.487318,-0.470882,-0.487318,-0.520188,-0.602364,-0.618799,-0.651669,-0.553058,-0.602364,-0.536623,-0.520188,-0.470882,-0.536623,-0.553058,-0.536623,-0.585928,-0.569493,-0.651669,-0.668104,-0.618799,-0.651669,-0.569493,-0.569493,-0.536623,-0.536623,-0.569493,-0.585928,-0.618799,-0.635234,-0.635234,-0.684539,-0.651669,-0.618799,-0.602364,-0.585928,-0.602364,-0.585928,-0.536623,-0.602364,-0.651669,-0.635234,-0.700975,-0.700975,-0.700975,-0.651669,-0.651669,-0.602364,-0.635234,-0.585928,-0.536623,-0.618799,-0.668104,-0.651669,-0.635234,-0.668104,-0.635234,-0.553058,-0.635234,-0.520188,-0.536623,-0.520188,-0.487318,-0.470882,-0.536623,-0.553058,-0.569493,-0.569493,-0.585928,-0.503753,-0.438012,-0.339401,-0.240790,-0.224355,-0.191485,-0.191485,-0.207920,-0.125744,-0.191485,-0.125744,-0.109309,-0.092874,-0.109309,-0.027133,-0.027133,-0.043568,-0.043568,-0.092874,-0.142179,-0.224355,-0.290096,-0.388707,-0.355836,-0.405142,-0.454447,-0.503753,-0.438012,-0.503753,-0.520188,-0.553058,-0.585928,-0.651669,-0.668104,-0.651669,-0.668104,-0.635234,-0.635234,-0.651669,-0.668104,-0.618799,-0.585928,-0.618799,-0.635234,-0.668104,-0.717410,-0.700975,-0.717410,-0.700975,-0.668104,-0.635234,-0.668104,-0.585928,-0.569493,-0.585928,-0.668104,-0.700975,-0.569493,-0.339401,0.104348,0.745320,1.468467,2.372401,3.144853,3.950176,4.607583,4.936286,4.837675,4.328185,3.539297,2.471012,1.304115,0.087913,-0.799586,-1.341946,-1.407687,-1.243335,-0.963937,-0.750280,-0.668104,-0.602364,-0.635234,-0.635234,-0.602364,-0.569493,-0.470882,-0.454447,-0.421577,-0.470882,-0.470882,-0.520188,-0.553058,-0.569493,-0.602364,-0.602364,-0.536623,-0.503753,-0.487318,-0.470882,-0.405142,-0.388707,-0.470882,-0.470882,-0.421577,-0.454447,-0.487318,-0.536623,-0.470882,-0.470882,-0.405142,-0.388707,-0.372271,-0.372271,-0.388707,-0.355836,-0.421577,-0.454447,-0.438012,-0.438012,-0.421577,-0.355836,-0.355836,-0.257225,-0.273660,-0.175049,-0.240790,-0.224355,-0.224355,-0.240790,-0.240790,-0.207920,-0.158614,-0.076438,-0.060003,0.005737,0.038608,0.104348,0.120784,0.186524,0.120784,0.137219,0.153654,0.186524,0.186524,0.268700,0.350876,0.383746,0.498792,0.548098,0.564533,0.564533,0.597403,0.630274,0.663144,0.696014,0.778190,0.827496,0.942542,0.958977,1.156199,1.156199,1.205504,1.221939,1.287680,1.287680,1.287680,1.336986,1.353421,1.419161,1.517772,1.550643,1.632818,1.616383,1.682124,1.665689,1.616383,1.632818,1.599948,1.599948,1.583513,1.583513,1.517772,1.534208,1.452032,1.386291,1.304115,1.238375,1.057588,1.024717,0.860366,0.696014,0.630274,0.548098,0.465922,0.367311,0.350876,0.235830,0.137219,0.071478,-0.027133,-0.158614,-0.207920,-0.306531,1.000000,117.000000
1.933466,-0.847824,-0.847824,-0.816038,-0.784252,-0.736572,-0.704786,-0.736572,-0.768358,-0.831931,-0.816038,-0.831931,-0.831931,-0.831931,-0.863717,-0.831931,-0.831931,-0.704786,-0.673000,-0.784252,-0.736572,-0.784252,-0.784252,-0.800145,-0.784252,-0.847824,-0.784252,-0.768358,-0.768358,-0.704786,-0.720679,-0.720679,-0.752465,-0.752465,-0.831931,-0.847824,-0.816038,-0.800145,-0.768358,-0.816038,-0.736572,-0.704786,-0.657107,-0.752465,-0.704786,-0.768358,-0.768358,-0.784252,-0.800145,-0.752465,-0.752465,-0.704786,-0.688893,-0.673000,-0.641214,-0.673000,-0.673000,-0.736572,-0.720679,-0.720679,-0.736572,-0.752465,-0.720679,-0.673000,-0.609428,-0.641214,-0.561748,-0.673000,-0.673000,-0.625321,-0.641214,-0.609428,-0.593534,-0.577641,-0.529962,-0.434604,-0.402817,-0.291566,-0.243887,-0.243887,-0.227994,-0.180314,-0.164421,-0.148528,-0.164421,-0.164421,-0.132635,-0.132635,-0.116742,-0.084956,-0.069063,-0.148528,-0.196207,-0.275673,-0.307459,-0.371031,-0.434604,-0.482283,-0.514069,-0.545855,-0.514069,-0.561748,-0.498176,-0.561748,-0.561748,-0.609428,-0.593534,-0.673000,-0.688893,-0.688893,-0.673000,-0.704786,-0.609428,-0.545855,-0.577641,-0.625321,-0.704786,-0.704786,-0.688893,-0.720679,-0.704786,-0.688893,-0.704786,-0.657107,-0.593534,-0.561748,-0.529962,-0.514069,-0.514069,-0.450497,-0.196207,0.185227,0.757378,1.520246,2.299007,3.109554,3.872422,4.317429,4.476360,4.142605,3.443309,2.442045,1.250063,0.026296,-0.943182,-1.547120,-1.690157,-1.467654,-1.149792,-0.879610,-0.657107,-0.593534,-0.577641,-0.561748,-0.545855,-0.514069,-0.529962,-0.514069,-0.482283,-0.514069,-0.434604,-0.434604,-0.402817,-0.371031,-0.418711,-0.418711,-0.434604,-0.450497,-0.434604,-0.466390,-0.418711,-0.434604,-0.371031,-0.323352,-0.323352,-0.323352,-0.275673,-0.307459,-0.339245,-0.323352,-0.323352,-0.339245,-0.291566,-0.243887,-0.212100,-0.180314,-0.116742,-0.069063,-0.069063,-0.100849,-0.116742,-0.100849,-0.116742,-0.164421,-0.100849,-0.037277,-0.037277,0.010403,0.121654,0.073975,0.058082,0.089868,0.121654,0.105761,0.089868,0.105761,0.153441,0.217013,0.280585,0.296478,0.391837,0.407730,0.407730,0.423623,0.455409,0.455409,0.503088,0.487195,0.566661,0.662019,0.709698,0.789164,0.900416,0.963988,0.979881,1.011667,1.027560,1.091133,1.138812,1.170598,1.265956,1.281850,1.393101,1.504353,1.520246,1.567925,1.583818,1.599711,1.552032,1.647391,1.663284,1.679177,1.695070,1.742749,1.822214,1.838108,1.869894,1.838108,1.790428,1.806321,1.726856,1.695070,1.615604,1.504353,1.520246,1.393101,1.361315,1.297743,1.250063,1.154705,0.979881,0.916309,0.773271,0.614340,0.518981,0.487195,0.391837,0.391837,0.312371,0.280585,0.201120,0.153441,0.089868,0.026296,-0.069063,1.000000,117.000000
1.588223,-0.642076,-0.642076,-0.691273,-0.642076,-0.691273,-0.642076,-0.576479,-0.560079,-0.510882,-0.478083,-0.510882,-0.576479,-0.576479,-0.625676,-0.625676,-0.724072,-0.658475,-0.658475,-0.592878,-0.576479,-0.592878,-0.543680,-0.560079,-0.592878,-0.576479,-0.625676,-0.674874,-0.658475,-0.707673,-0.691273,-0.592878,-0.543680,-0.527281,-0.527281,-0.527281,-0.527281,-0.609277,-0.576479,-0.609277,-0.592878,-0.609277,-0.543680,-0.576479,-0.510882,-0.543680,-0.478083,-0.527281,-0.560079,-0.543680,-0.576479,-0.560079,-0.543680,-0.543680,-0.510882,-0.478083,-0.412486,-0.478083,-0.428885,-0.412486,-0.445285,-0.461684,-0.543680,-0.543680,-0.543680,-0.543680,-0.527281,-0.494482,-0.478083,-0.445285,-0.412486,-0.494482,-0.478083,-0.478083,-0.445285,-0.461684,-0.379688,-0.379688,-0.297691,-0.215695,-0.182896,-0.068102,-0.084501,-0.018904,0.063092,0.013895,-0.051702,-0.100900,-0.068102,-0.133699,-0.117299,-0.117299,-0.117299,-0.133699,-0.117299,-0.150098,-0.232094,-0.297691,-0.346889,-0.461684,-0.510882,-0.543680,-0.543680,-0.494482,-0.527281,-0.478083,-0.461684,-0.510882,-0.560079,-0.609277,-0.625676,-0.674874,-0.691273,-0.707673,-0.658475,-0.592878,-0.576479,-0.560079,-0.543680,-0.592878,-0.592878,-0.592878,-0.625676,-0.625676,-0.609277,-0.674874,-0.560079,-0.609277,-0.510882,-0.428885,-0.166497,0.194286,0.784660,1.506227,2.424585,3.277347,4.048112,4.654884,4.835276,4.556489,3.900518,2.752570,1.440630,-0.068102,-1.330844,-2.134408,-2.298401,-2.134408,-1.757225,-1.314445,-1.068456,-0.953661,-0.822467,-0.740471,-0.625676,-0.592878,-0.510882,-0.592878,-0.625676,-0.642076,-0.658475,-0.658475,-0.642076,-0.609277,-0.609277,-0.560079,-0.510882,-0.494482,-0.494482,-0.445285,-0.543680,-0.478083,-0.543680,-0.560079,-0.543680,-0.478083,-0.412486,-0.346889,-0.297691,-0.248493,-0.297691,-0.281292,-0.297691,-0.264893,-0.314090,-0.330490,-0.264893,-0.281292,-0.248493,-0.199296,-0.232094,-0.232094,-0.215695,-0.199296,-0.150098,-0.150098,-0.182896,-0.133699,-0.117299,-0.100900,0.013895,0.030294,0.079492,0.063092,0.046693,0.063092,0.030294,0.079492,0.112290,0.128689,0.177887,0.210686,0.325481,0.374678,0.407477,0.456675,0.489473,0.522272,0.538671,0.571469,0.653466,0.637066,0.751861,0.751861,0.833857,0.915854,1.030649,1.030649,1.112645,1.161843,1.194641,1.194641,1.194641,1.325835,1.325835,1.424231,1.489828,1.571824,1.637421,1.604623,1.686619,1.604623,1.653820,1.637421,1.621022,1.621022,1.637421,1.637421,1.686619,1.686619,1.735817,1.686619,1.571824,1.506227,1.375033,1.293037,1.211040,1.063447,0.965052,0.866656,0.866656,0.768260,0.653466,0.555070,0.440275,0.374678,0.194286,0.046693,-0.018904,-0.051702,-0.133699,-0.182896,-0.248493,-0.232094,-0.314090,1.000000,117.000000
1.681100,-0.644316,-0.644316,-0.676839,-0.676839,-0.709363,-0.741886,-0.790671,-0.741886,-0.741886,-0.725624,-0.676839,-0.693101,-0.611793,-0.611793,-0.660578,-0.676839,-0.693101,-0.693101,-0.741886,-0.806933,-0.758148,-0.693101,-0.660578,-0.660578,-0.595531,-0.595531,-0.628054,-0.611793,-0.644316,-0.628054,-0.741886,-0.709363,-0.628054,-0.644316,-0.628054,-0.579269,-0.530485,-0.546746,-0.530485,-0.530485,-0.595531,-0.628054,-0.676839,-0.628054,-0.660578,-0.628054,-0.611793,-0.595531,-0.546746,-0.563008,-0.563008,-0.563008,-0.628054,-0.628054,-0.676839,-0.693101,-0.644316,-0.660578,-0.595531,-0.530485,-0.546746,-0.530485,-0.497961,-0.563008,-0.611793,-0.660578,-0.644316,-0.611793,-0.660578,-0.546746,-0.481700,-0.384130,-0.351606,-0.286560,-0.351606,-0.367868,-0.335345,-0.302821,-0.286560,-0.188990,-0.172728,-0.107682,-0.075158,-0.075158,-0.107682,-0.091420,-0.075158,-0.107682,-0.205252,-0.237775,-0.221513,-0.302821,-0.335345,-0.384130,-0.351606,-0.367868,-0.432915,-0.432915,-0.497961,-0.530485,-0.579269,-0.579269,-0.693101,-0.660578,-0.676839,-0.611793,-0.611793,-0.660578,-0.595531,-0.644316,-0.660578,-0.676839,-0.693101,-0.709363,-0.758148,-0.741886,-0.660578,-0.628054,-0.611793,-0.595531,-0.546746,-0.563008,-0.611793,-0.530485,-0.611793,-0.660578,-0.660578,-0.660578,-0.563008,-0.319083,0.168766,0.786709,1.616053,2.461659,3.339788,4.087824,4.689505,4.917168,4.575673,3.843899,2.705584,1.437175,0.168766,-0.871979,-1.441137,-1.538707,-1.359829,-1.099642,-0.839456,-0.660578,-0.676839,-0.644316,-0.660578,-0.579269,-0.546746,-0.514223,-0.465438,-0.530485,-0.514223,-0.546746,-0.563008,-0.595531,-0.595531,-0.579269,-0.546746,-0.530485,-0.465438,-0.481700,-0.400391,-0.416653,-0.384130,-0.367868,-0.416653,-0.400391,-0.416653,-0.465438,-0.384130,-0.367868,-0.335345,-0.319083,-0.254037,-0.286560,-0.254037,-0.254037,-0.254037,-0.335345,-0.351606,-0.302821,-0.270298,-0.188990,-0.188990,-0.156467,-0.123943,-0.091420,-0.123943,-0.075158,-0.140205,-0.091420,-0.091420,-0.091420,-0.058897,-0.026373,0.054935,0.071196,0.168766,0.185028,0.233813,0.233813,0.185028,0.217551,0.185028,0.266336,0.298860,0.380168,0.412691,0.526523,0.526523,0.591569,0.607831,0.640354,0.640354,0.689139,0.737924,0.770447,0.835494,0.868017,0.981849,1.111942,1.111942,1.176989,1.242035,1.307082,1.323343,1.404652,1.388390,1.437175,1.502222,1.583530,1.664838,1.697361,1.794931,1.762408,1.811193,1.794931,1.811193,1.697361,1.697361,1.697361,1.713623,1.697361,1.648576,1.632315,1.567268,1.534745,1.404652,1.242035,1.144465,1.046895,0.916802,0.819232,0.689139,0.607831,0.526523,0.428953,0.363906,0.298860,0.217551,0.103720,0.006150,-0.010112,-0.221513,-0.221513,-0.237775,-0.270298,1.000000,117.000000
1.412316,-0.712183,-0.585347,-0.585347,-0.585347,-0.601201,-0.648765,-0.680474,-0.712183,-0.759746,-0.696328,-0.712183,-0.696328,-0.632910,-0.648765,-0.585347,-0.585347,-0.617056,-0.632910,-0.648765,-0.680474,-0.743892,-0.743892,-0.712183,-0.712183,-0.632910,-0.648765,-0.617056,-0.601201,-0.585347,-0.569493,-0.601201,-0.601201,-0.648765,-0.664619,-0.664619,-0.617056,-0.617056,-0.569493,-0.553638,-0.553638,-0.553638,-0.601201,-0.632910,-0.664619,-0.680474,-0.680474,-0.632910,-0.632910,-0.569493,-0.553638,-0.521929,-0.553638,-0.569493,-0.585347,-0.632910,-0.617056,-0.664619,-0.696328,-0.680474,-0.680474,-0.664619,-0.632910,-0.601201,-0.601201,-0.585347,-0.569493,-0.664619,-0.680474,-0.696328,-0.696328,-0.664619,-0.553638,-0.426802,-0.347530,-0.284112,-0.315821,-0.268258,-0.268258,-0.299967,-0.268258,-0.236549,-0.157276,-0.062150,-0.014586,0.032977,0.017123,0.064686,0.017123,0.001268,-0.062150,-0.093858,-0.109713,-0.173131,-0.236549,-0.284112,-0.331675,-0.395093,-0.379239,-0.458511,-0.442657,-0.490220,-0.474366,-0.521929,-0.521929,-0.601201,-0.648765,-0.632910,-0.632910,-0.585347,-0.585347,-0.632910,-0.617056,-0.664619,-0.632910,-0.728037,-0.743892,-0.759746,-0.775601,-0.728037,-0.712183,-0.712183,-0.632910,-0.569493,-0.521929,-0.553638,-0.632910,-0.648765,-0.585347,-0.585347,-0.347530,0.064686,0.667156,1.444025,2.252603,3.156308,3.853904,4.297829,4.519792,4.139285,3.457542,2.363584,1.095227,-0.188985,-1.298798,-1.948831,-2.075667,-1.837850,-1.409779,-1.108544,-0.934145,-0.823164,-0.775601,-0.775601,-0.712183,-0.601201,-0.537784,-0.458511,-0.426802,-0.395093,-0.410948,-0.410948,-0.474366,-0.490220,-0.506075,-0.506075,-0.490220,-0.506075,-0.490220,-0.426802,-0.395093,-0.331675,-0.347530,-0.363384,-0.363384,-0.379239,-0.395093,-0.426802,-0.442657,-0.331675,-0.379239,-0.268258,-0.252403,-0.188985,-0.220694,-0.173131,-0.220694,-0.236549,-0.236549,-0.252403,-0.236549,-0.236549,-0.236549,-0.173131,-0.125567,-0.141422,-0.014586,-0.093858,-0.078004,-0.062150,0.017123,-0.046295,-0.062150,0.017123,0.064686,0.064686,0.191522,0.270794,0.254940,0.302503,0.350067,0.381776,0.445193,0.508611,0.508611,0.587884,0.603738,0.730574,0.809846,0.920828,0.984245,1.000100,1.047663,1.095227,1.126936,1.158645,1.190353,1.206208,1.333044,1.428171,1.491588,1.586715,1.586715,1.665988,1.681842,1.697696,1.729405,1.745260,1.776969,1.808678,1.872096,1.903805,1.983077,1.919659,1.983077,1.935513,1.903805,1.776969,1.745260,1.665988,1.602570,1.507443,1.428171,1.396462,1.269626,1.206208,1.111081,1.015954,0.873264,0.730574,0.635447,0.397630,0.286649,0.207376,0.128104,0.080541,0.001268,-0.014586,-0.109713,-0.125567,-0.236549,-0.284112,-0.331675,-0.442657,-0.442657,1.000000,117.000000
1.547005,-0.546033,-0.578737,-0.529681,-0.513330,-0.529681,-0.447922,-0.480626,-0.464274,-0.496978,-0.513330,-0.562385,-0.595089,-0.595089,-0.644144,-0.562385,-0.546033,-0.513330,-0.480626,-0.480626,-0.480626,-0.513330,-0.546033,-0.562385,-0.546033,-0.644144,-0.611441,-0.595089,-0.529681,-0.529681,-0.496978,-0.480626,-0.529681,-0.546033,-0.611441,-0.611441,-0.627793,-0.644144,-0.627793,-0.627793,-0.578737,-0.578737,-0.496978,-0.513330,-0.513330,-0.529681,-0.611441,-0.611441,-0.676848,-0.676848,-0.644144,-0.644144,-0.627793,-0.611441,-0.595089,-0.578737,-0.578737,-0.562385,-0.578737,-0.627793,-0.627793,-0.611441,-0.644144,-0.627793,-0.546033,-0.513330,-0.513330,-0.513330,-0.464274,-0.529681,-0.578737,-0.513330,-0.546033,-0.496978,-0.480626,-0.382515,-0.300755,-0.300755,-0.186292,-0.153589,-0.137237,-0.071829,-0.104533,-0.055477,-0.055477,-0.104533,-0.071829,-0.039126,-0.006422,0.042634,-0.039126,-0.006422,-0.039126,-0.104533,-0.202644,-0.317107,-0.415218,-0.431570,-0.529681,-0.496978,-0.529681,-0.513330,-0.480626,-0.513330,-0.496978,-0.513330,-0.578737,-0.595089,-0.676848,-0.709552,-0.693200,-0.660496,-0.644144,-0.627793,-0.627793,-0.611441,-0.644144,-0.660496,-0.660496,-0.709552,-0.758608,-0.774959,-0.725904,-0.725904,-0.660496,-0.660496,-0.578737,-0.595089,-0.595089,-0.513330,-0.317107,0.222504,0.778468,1.563357,2.495413,3.394766,4.196007,4.801026,4.948193,4.751970,4.016136,2.985969,1.710524,0.418727,-0.660496,-1.396330,-1.641608,-1.543497,-1.183756,-0.954830,-0.742256,-0.611441,-0.562385,-0.546033,-0.578737,-0.562385,-0.562385,-0.578737,-0.562385,-0.578737,-0.513330,-0.546033,-0.529681,-0.546033,-0.513330,-0.513330,-0.546033,-0.546033,-0.595089,-0.595089,-0.562385,-0.562385,-0.496978,-0.431570,-0.447922,-0.415218,-0.415218,-0.398867,-0.431570,-0.464274,-0.447922,-0.513330,-0.447922,-0.447922,-0.415218,-0.366163,-0.366163,-0.300755,-0.333459,-0.300755,-0.333459,-0.366163,-0.382515,-0.333459,-0.349811,-0.300755,-0.268052,-0.218996,-0.202644,-0.169940,-0.235348,-0.186292,-0.169940,-0.153589,-0.104533,-0.088181,-0.071829,-0.039126,0.009930,0.091689,0.157097,0.222504,0.271560,0.238856,0.336967,0.353319,0.353319,0.369671,0.435078,0.500486,0.582245,0.631301,0.762116,0.860227,0.843875,0.909283,0.941986,0.974690,1.040097,1.089153,1.089153,1.219968,1.301727,1.350783,1.432542,1.530653,1.481598,1.563357,1.579709,1.596061,1.563357,1.579709,1.628764,1.694172,1.694172,1.743228,1.775931,1.792283,1.743228,1.710524,1.628764,1.579709,1.530653,1.448894,1.301727,1.285375,1.187264,1.154560,1.056449,0.991042,0.843875,0.729412,0.582245,0.402375,0.304264,0.238856,0.206152,0.009930,0.026282,-0.039126,-0.055477,-0.153589,-0.202644,-0.268052,-0.366163,1.000000,117.000000
