1.460484,-0.434012,-0.457400,-0.504178,-0.550956,-0.550956,-0.574345,-0.504178,-0.457400,-0.457400,-0.293679,-0.340456,-0.340456,-0.410623,-0.410623,-0.480789,-0.480789,-0.480789,-0.504178,-0.504178,-0.457400,-0.434012,-0.434012,-0.434012,-0.387234,-0.434012,-0.480789,-0.527567,-0.550956,-0.550956,-0.504178,-0.434012,-0.387234,-0.317067,-0.293679,-0.270290,-0.246901,-0.317067,-0.410623,-0.410623,-0.387234,-0.480789,-0.504178,-0.457400,-0.527567,-0.387234,-0.340456,-0.317067,-0.363845,-0.387234,-0.410623,-0.434012,-0.434012,-0.457400,-0.457400,-0.457400,-0.340456,-0.246901,-0.176735,-0.106568,-0.246901,-0.246901,-0.340456,-0.340456,-0.340456,-0.293679,-0.223512,-0.153346,-0.036402,0.033765,0.010376,-0.036402,0.010376,0.033765,-0.083179,-0.129957,-0.153346,-0.200123,-0.246901,-0.106568,-0.153346,-0.129957,-0.083179,-0.153346,-0.200123,-0.317067,-0.363845,-0.363845,-0.480789,-0.434012,-0.410623,-0.410623,-0.387234,-0.270290,-0.270290,-0.246901,-0.270290,-0.340456,-0.317067,-0.410623,-0.480789,-0.410623,-0.363845,-0.340456,-0.363845,-0.340456,-0.293679,-0.317067,-0.363845,-0.363845,-0.363845,-0.434012,-0.410623,-0.410623,-0.387234,-0.340456,-0.363845,-0.270290,-0.246901,-0.200123,-0.270290,-0.270290,-0.270290,-0.293679,-0.246901,-0.153346,-0.176735,-0.013013,0.103931,0.337820,0.688652,1.179818,1.904871,2.700092,3.401757,3.916311,4.220366,4.290532,4.243754,4.080033,3.635645,2.933980,1.975038,0.595097,-0.971955,-2.515618,-3.591504,-4.176224,-4.176224,-3.614893,-2.866450,-2.094619,-1.533287,-1.135677,-0.855011,-0.714678,-0.644511,-0.644511,-0.621122,-0.667900,-0.527567,-0.527567,-0.457400,-0.434012,-0.317067,-0.270290,-0.223512,-0.106568,-0.153346,-0.106568,-0.223512,-0.246901,-0.270290,-0.270290,-0.200123,-0.200123,-0.129957,-0.083179,0.010376,0.010376,0.010376,-0.036402,-0.059790,-0.106568,-0.200123,-0.223512,-0.223512,-0.200123,-0.153346,-0.106568,-0.036402,0.033765,-0.013013,-0.036402,0.010376,-0.083179,-0.036402,-0.083179,-0.059790,-0.036402,0.033765,0.103931,0.127320,0.150709,0.103931,0.057154,0.010376,-0.059790,0.010376,-0.036402,0.033765,0.057154,0.080543,0.197487,0.197487,0.197487,0.103931,0.220876,0.174098,0.174098,0.174098,0.197487,0.291042,0.337820,0.407986,0.431375,0.501542,0.571708,0.571708,0.595097,0.548319,0.431375,0.501542,0.524930,0.571708,0.665263,0.712041,0.758819,0.828985,0.922541,0.852374,0.875763,0.899152,0.875763,0.852374,0.828985,0.945929,0.992707,1.133040,1.156429,1.203206,1.226595,1.179818,1.156429,1.086262,1.016096,0.945929,0.899152,0.922541,0.758819,0.828985,0.805596,0.852374,0.758819,0.571708,0.571708,0.454764,0.291042,0.197487,0.103931,0.103931,0.080543,0.010376,0.080543,0.080543,1.000000,123.000000
1.728134,-0.493036,-0.563178,-0.563178,-0.516417,-0.469655,-0.469655,-0.352752,-0.352752,-0.352752,-0.422894,-0.469655,-0.516417,-0.516417,-0.633320,-0.633320,-0.563178,-0.516417,-0.469655,-0.469655,-0.376132,-0.446275,-0.422894,-0.422894,-0.469655,-0.516417,-0.539797,-0.539797,-0.446275,-0.446275,-0.469655,-0.422894,-0.305990,-0.352752,-0.376132,-0.422894,-0.469655,-0.539797,-0.493036,-0.563178,-0.469655,-0.493036,-0.469655,-0.399513,-0.352752,-0.399513,-0.469655,-0.446275,-0.446275,-0.516417,-0.493036,-0.469655,-0.446275,-0.422894,-0.376132,-0.329371,-0.282609,-0.329371,-0.352752,-0.376132,-0.469655,-0.446275,-0.469655,-0.493036,-0.329371,-0.282609,-0.259229,-0.118944,-0.142325,-0.142325,-0.189086,-0.235848,-0.305990,-0.305990,-0.212467,-0.212467,-0.118944,-0.072183,0.021340,-0.025421,0.021340,-0.095563,-0.235848,-0.282609,-0.282609,-0.446275,-0.469655,-0.446275,-0.446275,-0.422894,-0.376132,-0.446275,-0.399513,-0.446275,-0.446275,-0.469655,-0.539797,-0.609940,-0.633320,-0.539797,-0.516417,-0.469655,-0.399513,-0.329371,-0.376132,-0.329371,-0.376132,-0.376132,-0.376132,-0.493036,-0.539797,-0.446275,-0.422894,-0.446275,-0.329371,-0.282609,-0.329371,-0.259229,-0.352752,-0.446275,-0.446275,-0.469655,-0.469655,-0.422894,-0.352752,-0.329371,-0.095563,0.044721,0.185005,0.465574,0.909808,1.447565,2.195749,2.873790,3.481690,3.785639,3.925924,3.996066,4.019446,3.972685,3.668735,3.177740,2.289272,0.979951,-0.609940,-2.176449,-3.485771,-4.023527,-3.813101,-3.111679,-2.246591,-1.428266,-1.007412,-0.726843,-0.703463,-0.773605,-0.750224,-0.773605,-0.703463,-0.586559,-0.422894,-0.352752,-0.282609,-0.212467,-0.282609,-0.212467,-0.329371,-0.422894,-0.305990,-0.399513,-0.352752,-0.376132,-0.282609,-0.305990,-0.259229,-0.212467,-0.235848,-0.212467,-0.259229,-0.235848,-0.282609,-0.352752,-0.305990,-0.259229,-0.189086,-0.189086,-0.118944,-0.142325,-0.165706,-0.165706,-0.212467,-0.165706,-0.165706,-0.212467,-0.212467,-0.212467,-0.165706,-0.025421,-0.072183,0.068102,-0.025421,-0.048802,-0.165706,-0.025421,-0.142325,-0.118944,-0.142325,-0.118944,-0.002041,-0.072183,0.114863,0.091482,0.161625,0.185005,0.161625,0.208386,0.138244,0.114863,0.185005,0.138244,0.255148,0.348671,0.372051,0.465574,0.535716,0.488955,0.442194,0.442194,0.372051,0.442194,0.488955,0.582478,0.629239,0.676001,0.792905,0.909808,1.003331,0.979951,0.956570,1.073473,0.979951,1.003331,1.026712,1.166996,1.143616,1.283900,1.330662,1.377423,1.307281,1.377423,1.400804,1.283900,1.283900,1.166996,1.190377,1.166996,1.190377,1.166996,1.073473,1.003331,0.979951,0.933189,0.863047,0.699382,0.488955,0.442194,0.395432,0.372051,0.348671,0.278528,0.231767,0.208386,0.185005,0.068102,-0.002041,1.000000,123.000000
1.783262,-0.611723,-0.659622,-0.611723,-0.635672,-0.563823,-0.444074,-0.539873,-0.396174,-0.372224,-0.348274,-0.396174,-0.420124,-0.468024,-0.491973,-0.539873,-0.539873,-0.563823,-0.444074,-0.420124,-0.420124,-0.300375,-0.372224,-0.420124,-0.563823,-0.468024,-0.659622,-0.635672,-0.587773,-0.659622,-0.515923,-0.515923,-0.372224,-0.348274,-0.300375,-0.324324,-0.468024,-0.396174,-0.444074,-0.539873,-0.515923,-0.468024,-0.420124,-0.468024,-0.324324,-0.300375,-0.372224,-0.420124,-0.420124,-0.491973,-0.515923,-0.539873,-0.491973,-0.515923,-0.491973,-0.396174,-0.420124,-0.372224,-0.348274,-0.300375,-0.372224,-0.300375,-0.372224,-0.300375,-0.300375,-0.180625,-0.180625,-0.132726,-0.036926,0.010973,-0.036926,-0.012976,-0.108776,-0.084826,-0.156676,-0.108776,-0.084826,-0.012976,-0.084826,0.034923,-0.108776,-0.084826,-0.156676,-0.228525,-0.300375,-0.372224,-0.468024,-0.468024,-0.468024,-0.444074,-0.420124,-0.396174,-0.252475,-0.348274,-0.300375,-0.348274,-0.348274,-0.348274,-0.468024,-0.396174,-0.539873,-0.372224,-0.420124,-0.396174,-0.396174,-0.300375,-0.300375,-0.396174,-0.420124,-0.444074,-0.468024,-0.468024,-0.539873,-0.420124,-0.372224,-0.396174,-0.324324,-0.228525,-0.276425,-0.180625,-0.276425,-0.300375,-0.324324,-0.372224,-0.324324,-0.252475,-0.156676,-0.036926,0.058873,0.346271,0.753419,1.304265,2.022760,2.956804,3.531601,3.938748,4.226146,4.321946,4.274046,4.034547,3.459751,2.693356,1.376115,-0.276425,-1.928964,-3.318055,-4.036551,-3.964701,-3.413855,-2.503760,-1.713415,-1.138619,-0.875171,-0.683572,-0.707522,-0.707522,-0.707522,-0.659622,-0.635672,-0.563823,-0.587773,-0.539873,-0.491973,-0.444074,-0.324324,-0.396174,-0.276425,-0.276425,-0.252475,-0.300375,-0.300375,-0.372224,-0.324324,-0.324324,-0.252475,-0.300375,-0.180625,-0.108776,-0.084826,-0.012976,-0.108776,-0.084826,-0.204575,-0.252475,-0.228525,-0.252475,-0.228525,-0.252475,-0.156676,-0.084826,-0.132726,-0.060876,-0.132726,-0.156676,-0.156676,-0.156676,-0.156676,-0.132726,-0.060876,0.010973,-0.036926,0.058873,0.082823,0.010973,0.010973,-0.036926,-0.108776,-0.060876,-0.084826,-0.036926,0.058873,0.106773,0.106773,0.130723,0.130723,0.130723,0.058873,0.154672,0.130723,0.082823,0.154672,0.274422,0.322321,0.394171,0.418121,0.561820,0.513920,0.561820,0.633669,0.609720,0.561820,0.585770,0.657619,0.681569,0.777368,0.873168,0.992917,0.992917,0.992917,1.064767,1.064767,1.040817,1.016867,1.016867,0.968967,1.088716,1.160566,1.208466,1.232416,1.280315,1.280315,1.376115,1.280315,1.256365,1.160566,1.112666,1.064767,1.088716,1.088716,1.040817,1.016867,1.016867,0.921068,0.849218,0.681569,0.585770,0.466020,0.250472,0.202572,0.178622,0.058873,0.058873,-0.012976,-0.012976,-0.084826,1.000000,123.000000
1.606253,-0.545852,-0.545852,-0.478599,-0.478599,-0.388928,-0.433763,-0.456181,-0.456181,-0.501017,-0.545852,-0.590688,-0.568270,-0.523434,-0.478599,-0.366510,-0.366510,-0.366510,-0.366510,-0.344092,-0.388928,-0.433763,-0.478599,-0.523434,-0.478599,-0.501017,-0.366510,-0.366510,-0.276839,-0.276839,-0.344092,-0.366510,-0.388928,-0.456181,-0.545852,-0.523434,-0.568270,-0.478599,-0.411346,-0.411346,-0.388928,-0.366510,-0.321675,-0.299257,-0.321675,-0.411346,-0.433763,-0.456181,-0.433763,-0.388928,-0.433763,-0.276839,-0.209586,-0.299257,-0.299257,-0.321675,-0.344092,-0.433763,-0.411346,-0.478599,-0.523434,-0.501017,-0.456181,-0.321675,-0.254421,-0.142332,-0.209586,-0.097497,-0.119915,-0.142332,-0.187168,-0.209586,-0.164750,-0.164750,-0.007826,-0.030244,0.014592,0.104263,0.059427,-0.030244,0.014592,-0.119915,-0.299257,-0.366510,-0.344092,-0.344092,-0.321675,-0.276839,-0.299257,-0.299257,-0.299257,-0.321675,-0.433763,-0.478599,-0.523434,-0.501017,-0.456181,-0.366510,-0.321675,-0.276839,-0.254421,-0.276839,-0.276839,-0.254421,-0.209586,-0.254421,-0.276839,-0.388928,-0.456181,-0.366510,-0.366510,-0.366510,-0.276839,-0.254421,-0.276839,-0.321675,-0.299257,-0.321675,-0.366510,-0.411346,-0.388928,-0.344092,-0.321675,-0.209586,-0.142332,-0.119915,-0.187168,-0.097497,-0.030244,0.014592,0.104263,0.328441,0.776796,1.471747,2.413293,3.197915,3.892865,4.296385,4.408474,4.386056,4.049790,3.444510,2.637470,1.583835,0.193934,-1.330474,-2.810046,-3.841264,-4.222366,-4.043024,-3.392908,-2.653122,-2.047842,-1.554652,-1.218385,-0.994208,-0.859701,-0.657941,-0.657941,-0.501017,-0.411346,-0.433763,-0.411346,-0.366510,-0.388928,-0.299257,-0.299257,-0.366510,-0.299257,-0.299257,-0.254421,-0.164750,-0.119915,-0.052661,-0.142332,-0.119915,-0.164750,-0.232003,-0.254421,-0.187168,-0.187168,-0.142332,-0.097497,0.037010,0.059427,0.104263,-0.007826,0.037010,-0.075079,-0.119915,-0.097497,-0.142332,-0.164750,-0.164750,-0.119915,-0.119915,-0.052661,0.014592,0.014592,-0.030244,-0.007826,0.014592,-0.052661,-0.030244,0.014592,0.014592,-0.007826,0.037010,0.104263,0.126681,0.126681,0.126681,0.059427,0.104263,0.081845,0.126681,0.081845,0.104263,0.216352,0.238770,0.306023,0.328441,0.328441,0.373276,0.373276,0.395694,0.373276,0.485365,0.575036,0.597454,0.664707,0.754378,0.866467,0.911303,0.888885,0.888885,0.888885,0.933720,0.888885,0.911303,0.978556,1.000974,1.090645,1.135480,1.180316,1.135480,1.113062,1.180316,1.135480,1.068227,1.068227,1.023391,1.045809,1.113062,1.157898,1.157898,1.135480,1.157898,1.045809,1.023391,0.888885,0.799214,0.530201,0.530201,0.440529,0.328441,0.373276,0.328441,0.328441,0.350858,0.238770,0.126681,0.059427,-0.007826,-0.119915,1.000000,123.000000
2.008735,-0.282915,-0.328748,-0.259998,-0.259998,-0.191249,-0.145416,-0.145416,-0.122499,-0.099583,-0.145416,-0.168332,-0.214165,-0.191249,-0.237082,-0.259998,-0.282915,-0.259998,-0.191249,-0.168332,-0.145416,-0.168332,-0.214165,-0.168332,-0.305831,-0.305831,-0.374581,-0.374581,-0.374581,-0.374581,-0.305831,-0.214165,-0.214165,-0.145416,-0.259998,-0.214165,-0.237082,-0.282915,-0.328748,-0.282915,-0.351664,-0.374581,-0.259998,-0.237082,-0.168332,-0.168332,-0.214165,-0.214165,-0.305831,-0.328748,-0.374581,-0.374581,-0.351664,-0.374581,-0.237082,-0.282915,-0.305831,-0.214165,-0.214165,-0.122499,-0.145416,-0.145416,-0.099583,-0.122499,-0.214165,-0.076666,-0.145416,0.015000,0.037916,0.060833,0.106666,0.175415,0.106666,0.083749,-0.030833,-0.076666,-0.122499,-0.191249,-0.191249,-0.237082,-0.282915,-0.282915,-0.259998,-0.328748,-0.351664,-0.443330,-0.466247,-0.512080,-0.443330,-0.443330,-0.351664,-0.374581,-0.259998,-0.259998,-0.259998,-0.351664,-0.328748,-0.443330,-0.466247,-0.512080,-0.443330,-0.374581,-0.374581,-0.397497,-0.305831,-0.351664,-0.374581,-0.374581,-0.420414,-0.420414,-0.489163,-0.489163,-0.534996,-0.466247,-0.466247,-0.397497,-0.351664,-0.305831,-0.305831,-0.328748,-0.259998,-0.351664,-0.397497,-0.328748,-0.328748,-0.328748,-0.168332,-0.007917,0.106666,0.450413,0.839994,1.367073,2.008735,2.879562,3.429558,3.704556,3.819138,3.864971,3.796222,3.773305,3.521224,3.017061,2.169150,0.954576,-0.534996,-2.116234,-3.537057,-4.339134,-4.384967,-3.926637,-3.101644,-2.184984,-1.612071,-1.153741,-0.993326,-0.878743,-0.947493,-0.901660,-0.832910,-0.832910,-0.672495,-0.649578,-0.557913,-0.466247,-0.397497,-0.443330,-0.374581,-0.397497,-0.305831,-0.443330,-0.489163,-0.397497,-0.374581,-0.328748,-0.328748,-0.282915,-0.145416,-0.145416,-0.168332,-0.214165,-0.237082,-0.191249,-0.237082,-0.282915,-0.305831,-0.191249,-0.259998,-0.214165,-0.145416,-0.122499,-0.145416,-0.145416,-0.214165,-0.259998,-0.351664,-0.374581,-0.351664,-0.282915,-0.259998,-0.168332,-0.076666,-0.053750,-0.030833,-0.053750,-0.076666,-0.145416,-0.145416,-0.214165,-0.122499,-0.099583,-0.076666,-0.053750,-0.007917,0.106666,0.083749,0.083749,0.037916,0.015000,-0.030833,0.015000,-0.007917,0.060833,0.083749,0.175415,0.244165,0.381664,0.404580,0.358747,0.496246,0.427497,0.450413,0.473330,0.519163,0.587912,0.702495,0.679578,0.839994,0.908743,0.954576,0.954576,1.000409,0.977493,0.954576,0.931660,0.954576,1.000409,1.092075,1.160825,1.183741,1.252491,1.229574,1.275407,1.229574,1.206658,1.206658,1.183741,1.137908,1.114992,1.046242,1.000409,0.977493,0.977493,0.839994,0.725411,0.679578,0.519163,0.358747,0.244165,0.152499,0.083749,0.060833,0.015000,-0.076666,-0.030833,-0.122499,1.000000,123.000000
2.292642,-0.568546,-0.568546,-0.568546,-0.545472,-0.545472,-0.499323,-0.430101,-0.499323,-0.522398,-0.522398,-0.614694,-0.545472,-0.637768,-0.706990,-0.637768,-0.522398,-0.568546,-0.499323,-0.476249,-0.360879,-0.476249,-0.476249,-0.522398,-0.568546,-0.591620,-0.591620,-0.591620,-0.545472,-0.453175,-0.383953,-0.360879,-0.407027,-0.383953,-0.430101,-0.499323,-0.545472,-0.545472,-0.568546,-0.591620,-0.591620,-0.545472,-0.476249,-0.407027,-0.360879,-0.360879,-0.407027,-0.476249,-0.430101,-0.522398,-0.545472,-0.545472,-0.430101,-0.407027,-0.383953,-0.291657,-0.360879,-0.337805,-0.337805,-0.383953,-0.407027,-0.476249,-0.545472,-0.476249,-0.407027,-0.291657,-0.314731,-0.153212,-0.130138,-0.153212,-0.199360,-0.245508,-0.360879,-0.291657,-0.245508,-0.222434,-0.153212,-0.060916,0.031381,0.008307,0.008307,-0.014767,-0.037842,-0.199360,-0.291657,-0.360879,-0.360879,-0.430101,-0.407027,-0.430101,-0.383953,-0.337805,-0.383953,-0.337805,-0.337805,-0.430101,-0.568546,-0.522398,-0.545472,-0.453175,-0.407027,-0.360879,-0.360879,-0.360879,-0.337805,-0.314731,-0.291657,-0.314731,-0.407027,-0.499323,-0.430101,-0.337805,-0.337805,-0.314731,-0.360879,-0.176286,-0.245508,-0.337805,-0.383953,-0.314731,-0.407027,-0.407027,-0.383953,-0.360879,-0.337805,-0.222434,-0.199360,-0.060916,0.077529,0.215974,0.400566,1.046641,1.646568,2.500309,3.238680,3.769385,4.115496,4.253941,4.230867,4.138570,3.815533,3.007939,1.946531,0.423640,-1.237695,-2.829807,-3.706623,-3.914290,-3.314363,-2.437548,-1.676102,-1.030028,-0.753139,-0.614694,-0.706990,-0.753139,-0.730064,-0.730064,-0.660842,-0.614694,-0.522398,-0.430101,-0.337805,-0.314731,-0.291657,-0.337805,-0.291657,-0.337805,-0.383953,-0.476249,-0.430101,-0.407027,-0.430101,-0.360879,-0.245508,-0.222434,-0.245508,-0.199360,-0.245508,-0.222434,-0.268582,-0.337805,-0.291657,-0.245508,-0.245508,-0.222434,-0.130138,-0.130138,-0.083990,-0.130138,-0.153212,-0.107064,-0.199360,-0.268582,-0.268582,-0.268582,-0.222434,-0.222434,-0.107064,-0.060916,-0.037842,-0.083990,-0.060916,-0.153212,-0.107064,-0.130138,-0.107064,-0.037842,-0.037842,-0.014767,0.077529,0.146751,0.123677,0.123677,0.123677,0.123677,0.123677,0.054455,0.100603,0.169825,0.123677,0.215974,0.331344,0.400566,0.377492,0.446715,0.492863,0.400566,0.423640,0.492863,0.515937,0.562085,0.700530,0.838974,0.908196,1.046641,1.115863,1.092789,1.069715,1.115863,1.185086,1.138937,1.231234,1.162012,1.231234,1.323530,1.461975,1.415827,1.438901,1.369678,1.369678,1.323530,1.300456,1.300456,1.208160,1.138937,1.138937,1.277382,1.254308,1.208160,1.069715,1.046641,0.931271,0.769752,0.608233,0.585159,0.423640,0.331344,0.285196,0.285196,0.215974,0.239048,0.123677,0.054455,-0.060916,1.000000,123.000000
2.042976,-0.466616,-0.510644,-0.400574,-0.422588,-0.422588,-0.378560,-0.378560,-0.378560,-0.488630,-0.444602,-0.466616,-0.532658,-0.466616,-0.444602,-0.356546,-0.378560,-0.356546,-0.334532,-0.378560,-0.422588,-0.488630,-0.488630,-0.598700,-0.554672,-0.532658,-0.466616,-0.466616,-0.356546,-0.466616,-0.422588,-0.466616,-0.510644,-0.576686,-0.510644,-0.488630,-0.510644,-0.444602,-0.422588,-0.400574,-0.334532,-0.378560,-0.444602,-0.488630,-0.400574,-0.532658,-0.532658,-0.510644,-0.532658,-0.444602,-0.378560,-0.312518,-0.356546,-0.312518,-0.312518,-0.444602,-0.488630,-0.576686,-0.642728,-0.576686,-0.444602,-0.400574,-0.356546,-0.268490,-0.180434,-0.158420,-0.114393,-0.136407,-0.246476,-0.224462,-0.180434,-0.268490,-0.158420,-0.092379,-0.004323,-0.026337,-0.004323,-0.070365,-0.092379,-0.224462,-0.268490,-0.378560,-0.488630,-0.554672,-0.554672,-0.532658,-0.422588,-0.444602,-0.400574,-0.378560,-0.444602,-0.400574,-0.422588,-0.466616,-0.532658,-0.466616,-0.422588,-0.378560,-0.400574,-0.356546,-0.290504,-0.290504,-0.356546,-0.312518,-0.422588,-0.444602,-0.554672,-0.466616,-0.488630,-0.510644,-0.400574,-0.422588,-0.378560,-0.378560,-0.444602,-0.400574,-0.400574,-0.378560,-0.378560,-0.400574,-0.378560,-0.312518,-0.334532,-0.246476,-0.246476,-0.158420,-0.136407,-0.136407,-0.180434,-0.048351,0.149775,0.457970,1.052347,1.822836,2.549297,3.209716,3.760065,3.958190,4.112288,3.958190,3.826106,3.451869,3.011590,2.241101,1.162417,0.039705,-1.149049,-2.447872,-3.284403,-3.768710,-3.680654,-3.306417,-2.668012,-2.117663,-1.611342,-1.281132,-1.127035,-0.884881,-0.730783,-0.620714,-0.532658,-0.488630,-0.444602,-0.400574,-0.488630,-0.488630,-0.444602,-0.400574,-0.356546,-0.334532,-0.290504,-0.224462,-0.224462,-0.136407,-0.114393,-0.180434,-0.246476,-0.202448,-0.224462,-0.202448,-0.224462,-0.136407,-0.070365,-0.026337,-0.004323,-0.092379,-0.048351,-0.136407,-0.180434,-0.224462,-0.268490,-0.180434,-0.224462,-0.180434,-0.070365,-0.048351,-0.026337,-0.026337,-0.004323,0.017691,-0.092379,-0.092379,-0.180434,-0.136407,-0.070365,-0.026337,0.017691,0.061719,0.083733,0.061719,0.105747,0.061719,0.061719,-0.004323,0.039705,-0.026337,-0.004323,0.105747,0.105747,0.171789,0.281859,0.259845,0.347901,0.303873,0.325887,0.259845,0.281859,0.347901,0.391929,0.479984,0.524012,0.656096,0.700124,0.700124,0.700124,0.700124,0.722138,0.766166,0.744152,0.832208,0.876236,0.898250,1.030333,1.008319,1.052347,1.140403,1.162417,1.096375,1.140403,1.140403,1.228459,1.162417,1.250473,1.338529,1.360543,1.448599,1.426585,1.426585,1.338529,1.316515,1.206445,1.140403,1.052347,0.986305,0.964292,0.964292,0.920264,0.832208,0.832208,0.656096,0.656096,0.435956,0.369915,0.193803,0.105747,1.000000,123.000000
1.921257,-0.282332,-0.329217,-0.258890,-0.235447,-0.258890,-0.282332,-0.399544,-0.446429,-0.469872,-0.422987,-0.376102,-0.352659,-0.258890,-0.258890,-0.212005,-0.235447,-0.258890,-0.305775,-0.422987,-0.399544,-0.446429,-0.399544,-0.446429,-0.446429,-0.329217,-0.282332,-0.329217,-0.305775,-0.258890,-0.399544,-0.352659,-0.329217,-0.376102,-0.376102,-0.352659,-0.305775,-0.329217,-0.258890,-0.188562,-0.235447,-0.282332,-0.305775,-0.258890,-0.352659,-0.376102,-0.422987,-0.329217,-0.352659,-0.305775,-0.235447,-0.282332,-0.329217,-0.258890,-0.329217,-0.376102,-0.399544,-0.376102,-0.352659,-0.329217,-0.258890,-0.094793,-0.024465,0.069304,0.092747,0.069304,0.069304,-0.047908,-0.141678,-0.188562,-0.188562,-0.094793,-0.024465,0.045862,0.116189,0.163074,0.092747,0.022419,-0.071350,-0.141678,-0.305775,-0.376102,-0.422987,-0.422987,-0.399544,-0.329217,-0.329217,-0.235447,-0.329217,-0.329217,-0.329217,-0.282332,-0.305775,-0.329217,-0.422987,-0.376102,-0.376102,-0.305775,-0.305775,-0.235447,-0.282332,-0.305775,-0.329217,-0.399544,-0.493314,-0.446429,-0.446429,-0.469872,-0.399544,-0.422987,-0.329217,-0.282332,-0.235447,-0.352659,-0.352659,-0.376102,-0.376102,-0.469872,-0.446429,-0.376102,-0.258890,-0.282332,-0.188562,-0.141678,-0.141678,-0.141678,-0.118235,-0.118235,-0.071350,0.045862,0.350614,0.772577,1.428966,2.226008,3.046494,3.773209,4.101403,4.218615,4.242058,4.148288,3.773209,3.187148,2.179123,0.866347,-0.774623,-2.368709,-3.658043,-4.314431,-4.150334,-3.540831,-2.720345,-1.899860,-1.407569,-1.126260,-0.868393,-0.891835,-0.798066,-0.633969,-0.657411,-0.610526,-0.563641,-0.446429,-0.540199,-0.540199,-0.446429,-0.540199,-0.469872,-0.376102,-0.376102,-0.305775,-0.258890,-0.188562,-0.165120,-0.188562,-0.235447,-0.212005,-0.305775,-0.282332,-0.352659,-0.258890,-0.235447,-0.258890,-0.141678,-0.188562,-0.094793,-0.188562,-0.212005,-0.258890,-0.282332,-0.399544,-0.376102,-0.305775,-0.258890,-0.235447,-0.141678,-0.071350,-0.094793,-0.094793,-0.094793,-0.141678,-0.188562,-0.258890,-0.235447,-0.188562,-0.071350,-0.071350,-0.071350,0.045862,0.139632,0.022419,0.022419,-0.071350,-0.094793,-0.094793,-0.024465,-0.047908,-0.024465,0.116189,0.209959,0.280286,0.233401,0.303729,0.327171,0.280286,0.303729,0.280286,0.327171,0.444383,0.491268,0.561595,0.655365,0.819462,0.796020,0.772577,0.913232,0.889790,0.889790,0.913232,0.889790,0.913232,1.030444,1.053887,1.194541,1.241426,1.241426,1.264869,1.335196,1.311753,1.264869,1.171099,1.241426,1.217984,1.264869,1.217984,1.264869,1.217984,1.100771,1.077329,0.889790,0.842905,0.678808,0.514711,0.444383,0.397498,0.327171,0.280286,0.233401,0.209959,0.045862,-0.001023,-0.047908,-0.141678,-0.258890,-0.212005,-0.235447,1.000000,123.000000
2.285914,-0.613045,-0.613045,-0.542339,-0.448064,-0.353789,-0.330220,-0.283082,-0.353789,-0.353789,-0.400926,-0.471633,-0.471633,-0.424495,-0.495201,-0.518770,-0.495201,-0.353789,-0.353789,-0.353789,-0.353789,-0.353789,-0.448064,-0.424495,-0.495201,-0.495201,-0.565908,-0.542339,-0.471633,-0.400926,-0.353789,-0.330220,-0.259514,-0.353789,-0.330220,-0.400926,-0.400926,-0.448064,-0.495201,-0.471633,-0.471633,-0.377358,-0.353789,-0.235945,-0.306651,-0.306651,-0.330220,-0.353789,-0.471633,-0.448064,-0.471633,-0.448064,-0.495201,-0.400926,-0.353789,-0.259514,-0.259514,-0.353789,-0.306651,-0.377358,-0.330220,-0.330220,-0.283082,-0.165239,-0.212376,-0.047395,-0.070963,-0.094532,-0.141670,-0.165239,-0.141670,-0.188807,-0.212376,-0.165239,-0.188807,-0.141670,-0.094532,-0.070963,-0.047395,-0.094532,-0.141670,-0.212376,-0.283082,-0.330220,-0.424495,-0.471633,-0.424495,-0.471633,-0.518770,-0.448064,-0.424495,-0.330220,-0.306651,-0.377358,-0.424495,-0.424495,-0.471633,-0.471633,-0.424495,-0.495201,-0.471633,-0.448064,-0.353789,-0.400926,-0.353789,-0.471633,-0.542339,-0.424495,-0.613045,-0.613045,-0.613045,-0.565908,-0.495201,-0.400926,-0.424495,-0.330220,-0.330220,-0.330220,-0.330220,-0.377358,-0.377358,-0.471633,-0.377358,-0.330220,-0.235945,-0.141670,-0.118101,0.094018,0.258999,0.612531,1.060338,1.649557,2.333052,3.063684,3.440784,3.652903,3.747178,3.865022,4.006435,3.982866,3.676472,3.016546,2.050226,0.730375,-0.919439,-2.474978,-3.535573,-3.936242,-3.653417,-2.875648,-2.074309,-1.296540,-0.895871,-0.754458,-0.754458,-0.872302,-0.848733,-0.872302,-0.825164,-0.730889,-0.660183,-0.542339,-0.495201,-0.377358,-0.471633,-0.448064,-0.448064,-0.448064,-0.471633,-0.495201,-0.471633,-0.448064,-0.353789,-0.330220,-0.306651,-0.165239,-0.165239,-0.212376,-0.212376,-0.330220,-0.283082,-0.353789,-0.330220,-0.330220,-0.306651,-0.283082,-0.212376,-0.259514,-0.165239,-0.212376,-0.188807,-0.283082,-0.330220,-0.424495,-0.377358,-0.306651,-0.306651,-0.235945,-0.188807,-0.118101,-0.047395,-0.023826,-0.070963,-0.094532,-0.141670,-0.165239,-0.165239,-0.094532,-0.094532,-0.070963,0.046880,0.046880,0.070449,0.023312,0.070449,-0.023826,0.046880,-0.000257,-0.070963,-0.047395,-0.000257,-0.000257,0.164724,0.211862,0.282568,0.306137,0.282568,0.329706,0.400412,0.400412,0.353275,0.471118,0.541825,0.565393,0.706806,0.730375,0.824650,0.895356,0.895356,0.871788,0.895356,0.871788,0.848219,0.942494,0.989631,1.060338,1.154613,1.178182,1.272457,1.272457,1.296025,1.366732,1.272457,1.296025,1.343163,1.343163,1.390301,1.390301,1.390301,1.390301,1.390301,1.296025,1.131044,1.154613,0.895356,0.848219,0.706806,0.659669,0.612531,0.518256,0.471118,0.376843,0.329706,0.211862,0.164724,1.000000,123.000000
2.036067,-0.398661,-0.536475,-0.513506,-0.582414,-0.582414,-0.651321,-0.697259,-0.674290,-0.651321,-0.582414,-0.513506,-0.513506,-0.559444,-0.582414,-0.559444,-0.536475,-0.559444,-0.605383,-0.605383,-0.605383,-0.536475,-0.582414,-0.536475,-0.582414,-0.559444,-0.490537,-0.536475,-0.490537,-0.536475,-0.605383,-0.559444,-0.536475,-0.582414,-0.467568,-0.536475,-0.467568,-0.513506,-0.559444,-0.536475,-0.536475,-0.536475,-0.605383,-0.651321,-0.582414,-0.605383,-0.536475,-0.421630,-0.398661,-0.375691,-0.421630,-0.375691,-0.398661,-0.467568,-0.513506,-0.490537,-0.536475,-0.513506,-0.421630,-0.421630,-0.352722,-0.306784,-0.329753,-0.306784,-0.260846,-0.260846,-0.283815,-0.283815,-0.306784,-0.283815,-0.191938,-0.191938,-0.191938,-0.100062,-0.123031,-0.123031,-0.077093,-0.054124,-0.123031,-0.123031,-0.191938,-0.237877,-0.329753,-0.306784,-0.352722,-0.329753,-0.398661,-0.352722,-0.352722,-0.421630,-0.513506,-0.513506,-0.582414,-0.559444,-0.536475,-0.490537,-0.375691,-0.306784,-0.421630,-0.398661,-0.467568,-0.444599,-0.490537,-0.513506,-0.536475,-0.513506,-0.490537,-0.329753,-0.306784,-0.329753,-0.375691,-0.352722,-0.306784,-0.352722,-0.444599,-0.467568,-0.467568,-0.467568,-0.421630,-0.398661,-0.306784,-0.306784,-0.306784,-0.283815,-0.283815,-0.352722,-0.260846,-0.214908,-0.168969,0.106660,0.428228,1.002456,1.645592,2.426542,3.069678,3.620937,3.896567,3.919536,3.896567,3.712814,3.345308,2.817018,1.967160,0.795734,-0.559444,-1.983530,-3.246833,-3.844030,-3.935906,-3.407616,-2.787450,-2.052438,-1.570086,-1.179611,-0.903981,-0.789136,-0.697259,-0.628352,-0.559444,-0.444599,-0.421630,-0.421630,-0.467568,-0.444599,-0.352722,-0.375691,-0.306784,-0.306784,-0.191938,-0.237877,-0.168969,-0.191938,-0.237877,-0.260846,-0.260846,-0.306784,-0.168969,-0.260846,-0.191938,-0.168969,-0.054124,-0.008185,-0.100062,-0.054124,-0.054124,-0.100062,-0.077093,-0.146000,-0.168969,-0.168969,-0.008185,0.060722,0.083691,0.129629,0.037753,0.060722,-0.008185,-0.077093,-0.100062,-0.168969,-0.123031,-0.123031,-0.054124,0.060722,0.106660,0.083691,0.083691,0.152599,0.060722,0.014784,-0.008185,0.083691,0.106660,0.221506,0.244475,0.267444,0.382290,0.405259,0.336352,0.290413,0.313382,0.336352,0.336352,0.313382,0.405259,0.382290,0.543074,0.589012,0.680889,0.772765,0.841672,0.864642,0.795734,0.841672,0.887611,0.910580,0.887611,0.933549,1.002456,1.048395,1.117302,1.209178,1.255117,1.301055,1.324024,1.255117,1.301055,1.209178,1.255117,1.324024,1.438870,1.484808,1.392932,1.438870,1.415901,1.346993,1.255117,1.163240,1.117302,1.025425,1.048395,1.025425,0.979487,0.933549,0.910580,0.887611,0.703858,0.703858,0.543074,0.474166,0.359321,0.267444,0.221506,0.152599,0.198537,1.000000,123.000000
1.813100,-0.496207,-0.426928,-0.311463,-0.357649,-0.265276,-0.288370,-0.311463,-0.334556,-0.311463,-0.334556,-0.311463,-0.426928,-0.380742,-0.311463,-0.265276,-0.265276,-0.195997,-0.195997,-0.172904,-0.288370,-0.311463,-0.334556,-0.334556,-0.357649,-0.426928,-0.357649,-0.311463,-0.334556,-0.219090,-0.334556,-0.288370,-0.357649,-0.426928,-0.357649,-0.426928,-0.288370,-0.311463,-0.311463,-0.265276,-0.242183,-0.172904,-0.103625,-0.265276,-0.219090,-0.265276,-0.311463,-0.334556,-0.288370,-0.311463,-0.195997,-0.242183,-0.126718,-0.172904,-0.242183,-0.195997,-0.219090,-0.219090,-0.311463,-0.288370,-0.242183,-0.172904,-0.126718,-0.103625,0.034934,0.058027,0.011840,0.034934,-0.011253,-0.057439,-0.057439,0.011840,-0.011253,0.034934,0.034934,0.058027,0.011840,0.104213,-0.011253,-0.080532,-0.149811,-0.242183,-0.311463,-0.426928,-0.403835,-0.380742,-0.357649,-0.288370,-0.334556,-0.219090,-0.172904,-0.219090,-0.172904,-0.265276,-0.403835,-0.403835,-0.403835,-0.334556,-0.311463,-0.265276,-0.242183,-0.195997,-0.219090,-0.219090,-0.219090,-0.288370,-0.357649,-0.357649,-0.450021,-0.334556,-0.357649,-0.426928,-0.334556,-0.265276,-0.288370,-0.265276,-0.426928,-0.334556,-0.450021,-0.426928,-0.380742,-0.357649,-0.334556,-0.288370,-0.149811,-0.172904,-0.103625,-0.080532,0.034934,0.058027,0.219678,0.473702,1.004843,1.582170,2.367334,3.106313,3.683640,3.914570,3.983850,3.983850,3.845291,3.591267,3.152499,2.482800,1.628356,0.312050,-1.050441,-2.505305,-3.636866,-4.144913,-4.144913,-3.729238,-3.013353,-2.343653,-1.835606,-1.535396,-1.258279,-1.142813,-0.958069,-0.888790,-0.680952,-0.542393,-0.519300,-0.496207,-0.496207,-0.473114,-0.426928,-0.519300,-0.519300,-0.496207,-0.473114,-0.426928,-0.380742,-0.380742,-0.288370,-0.265276,-0.288370,-0.265276,-0.311463,-0.357649,-0.311463,-0.311463,-0.334556,-0.219090,-0.195997,-0.080532,-0.126718,-0.172904,-0.172904,-0.149811,-0.265276,-0.311463,-0.311463,-0.219090,-0.242183,-0.172904,-0.195997,-0.149811,-0.172904,-0.195997,-0.195997,-0.195997,-0.311463,-0.311463,-0.311463,-0.334556,-0.219090,-0.172904,-0.080532,-0.011253,0.011840,-0.080532,-0.011253,0.011840,-0.126718,-0.103625,-0.103625,-0.057439,-0.011253,0.034934,0.081120,0.104213,0.104213,0.081120,0.127306,0.058027,0.058027,0.011840,0.034934,0.150399,0.196585,0.358237,0.404423,0.450609,0.496795,0.566074,0.496795,0.519888,0.612260,0.566074,0.612260,0.681540,0.773912,0.797005,0.912470,1.027936,1.027936,1.074122,1.004843,1.004843,0.981750,0.981750,1.027936,1.027936,1.097215,1.189587,1.212680,1.258867,1.258867,1.258867,1.212680,1.212680,1.212680,1.051029,1.004843,1.004843,0.912470,0.935564,0.866284,0.866284,0.727726,0.727726,0.496795,0.427516,0.312050,1.000000,123.000000
2.243039,-0.351485,-0.424914,-0.449391,-0.400438,-0.375961,-0.302531,-0.327008,-0.253578,-0.278055,-0.302531,-0.302531,-0.327008,-0.473868,-0.424914,-0.473868,-0.473868,-0.449391,-0.375961,-0.375961,-0.351485,-0.327008,-0.400438,-0.351485,-0.424914,-0.449391,-0.498344,-0.522821,-0.498344,-0.449391,-0.400438,-0.253578,-0.278055,-0.253578,-0.302531,-0.253578,-0.302531,-0.375961,-0.449391,-0.400438,-0.375961,-0.351485,-0.351485,-0.278055,-0.278055,-0.229101,-0.327008,-0.302531,-0.424914,-0.473868,-0.449391,-0.473868,-0.473868,-0.424914,-0.400438,-0.351485,-0.302531,-0.253578,-0.278055,-0.302531,-0.327008,-0.278055,-0.351485,-0.302531,-0.253578,-0.180148,-0.082242,-0.082242,-0.057765,-0.033288,-0.106718,-0.106718,-0.106718,-0.106718,-0.204625,-0.155671,-0.204625,-0.180148,-0.131195,-0.033288,-0.008812,-0.033288,-0.057765,-0.155671,-0.253578,-0.302531,-0.351485,-0.375961,-0.327008,-0.449391,-0.327008,-0.327008,-0.351485,-0.327008,-0.302531,-0.351485,-0.424914,-0.400438,-0.449391,-0.498344,-0.424914,-0.351485,-0.424914,-0.400438,-0.400438,-0.327008,-0.327008,-0.400438,-0.375961,-0.400438,-0.449391,-0.424914,-0.449391,-0.424914,-0.302531,-0.302531,-0.302531,-0.253578,-0.302531,-0.229101,-0.278055,-0.351485,-0.375961,-0.302531,-0.180148,-0.253578,-0.180148,-0.008812,0.162525,0.260431,0.749964,1.337404,2.243039,3.026292,3.564778,3.907451,4.127740,4.176694,4.225647,4.176694,3.760591,2.977338,1.826936,0.211478,-1.452933,-2.994962,-3.949551,-3.998504,-3.460018,-2.578859,-1.697700,-1.061307,-0.743111,-0.645204,-0.767587,-0.816541,-0.865494,-0.816541,-0.841017,-0.694157,-0.571774,-0.522821,-0.473868,-0.327008,-0.278055,-0.253578,-0.278055,-0.302531,-0.351485,-0.351485,-0.375961,-0.351485,-0.400438,-0.400438,-0.302531,-0.278055,-0.253578,-0.204625,-0.229101,-0.229101,-0.327008,-0.327008,-0.351485,-0.424914,-0.400438,-0.424914,-0.327008,-0.351485,-0.278055,-0.278055,-0.278055,-0.253578,-0.278055,-0.278055,-0.278055,-0.375961,-0.278055,-0.327008,-0.278055,-0.131195,-0.106718,-0.057765,-0.131195,-0.180148,-0.229101,-0.229101,-0.204625,-0.253578,-0.082242,-0.155671,-0.131195,-0.106718,-0.057765,-0.082242,-0.082242,0.015665,-0.008812,-0.057765,-0.033288,-0.033288,-0.033288,0.040142,0.138048,0.260431,0.187002,0.358338,0.407291,0.382815,0.333861,0.333861,0.333861,0.358338,0.480721,0.529674,0.505198,0.676534,0.749964,0.847871,0.774441,0.774441,0.847871,0.847871,0.847871,0.921301,0.970254,1.092637,1.141590,1.288450,1.337404,1.386357,1.361880,1.337404,1.337404,1.361880,1.288450,1.288450,1.239497,1.190544,1.263974,1.215020,1.215020,1.166067,0.970254,0.945777,0.749964,0.578628,0.505198,0.480721,0.382815,0.260431,0.235955,0.235955,0.089095,0.113572,0.015665,1.000000,123.000000
2.546840,-0.376548,-0.400708,-0.473189,-0.521510,-0.545670,-0.473189,-0.424869,-0.400708,-0.328228,-0.304068,-0.304068,-0.304068,-0.328228,-0.304068,-0.376548,-0.424869,-0.497349,-0.545670,-0.497349,-0.497349,-0.449029,-0.424869,-0.352388,-0.400708,-0.400708,-0.352388,-0.497349,-0.569830,-0.521510,-0.497349,-0.473189,-0.328228,-0.328228,-0.304068,-0.255747,-0.279907,-0.304068,-0.279907,-0.352388,-0.376548,-0.449029,-0.424869,-0.497349,-0.400708,-0.376548,-0.376548,-0.304068,-0.352388,-0.352388,-0.376548,-0.424869,-0.400708,-0.497349,-0.521510,-0.400708,-0.424869,-0.352388,-0.231587,-0.183266,-0.183266,-0.159106,-0.159106,-0.159106,-0.183266,-0.183266,-0.134946,-0.134946,-0.159106,-0.062465,-0.038305,0.106656,0.034176,0.082496,-0.014145,0.010016,-0.183266,-0.159106,-0.134946,-0.255747,-0.183266,-0.279907,-0.255747,-0.231587,-0.231587,-0.304068,-0.304068,-0.376548,-0.449029,-0.521510,-0.473189,-0.424869,-0.400708,-0.376548,-0.279907,-0.279907,-0.304068,-0.304068,-0.328228,-0.352388,-0.400708,-0.400708,-0.473189,-0.449029,-0.449029,-0.400708,-0.400708,-0.376548,-0.376548,-0.400708,-0.400708,-0.400708,-0.400708,-0.400708,-0.424869,-0.400708,-0.352388,-0.328228,-0.255747,-0.159106,-0.183266,-0.231587,-0.255747,-0.279907,-0.376548,-0.376548,-0.255747,-0.279907,-0.062465,0.082496,0.517380,1.000585,1.652912,2.450199,3.175006,3.634051,3.948134,3.875653,3.875653,3.827333,3.585730,3.126686,2.377719,1.411309,0.058336,-1.463759,-2.816732,-3.831462,-4.145545,-3.903943,-3.203296,-2.454328,-1.850323,-1.342958,-1.053035,-0.908073,-0.835593,-0.738952,-0.642311,-0.666471,-0.642311,-0.642311,-0.569830,-0.497349,-0.449029,-0.449029,-0.424869,-0.328228,-0.328228,-0.255747,-0.328228,-0.304068,-0.352388,-0.400708,-0.279907,-0.352388,-0.231587,-0.159106,-0.159106,-0.207427,-0.183266,-0.159106,-0.183266,-0.207427,-0.207427,-0.279907,-0.304068,-0.304068,-0.255747,-0.207427,-0.183266,-0.110786,-0.086625,-0.110786,-0.134946,-0.110786,-0.183266,-0.183266,-0.159106,-0.231587,-0.086625,-0.086625,0.010016,0.010016,-0.062465,-0.014145,-0.062465,-0.038305,-0.110786,-0.086625,-0.062465,-0.110786,-0.038305,0.010016,0.106656,0.154977,0.106656,0.106656,0.130817,0.106656,0.130817,0.010016,0.082496,0.130817,0.251618,0.227458,0.444900,0.420740,0.517380,0.565701,0.614021,0.565701,0.614021,0.589861,0.662342,0.734823,0.758983,0.879784,0.952265,1.000585,1.024745,1.000585,1.000585,1.000585,1.048906,1.000585,1.121386,1.145547,1.218027,1.290508,1.435469,1.435469,1.459630,1.411309,1.314668,1.218027,1.169707,1.048906,1.145547,1.097226,1.097226,1.048906,1.000585,0.952265,0.879784,0.807303,0.662342,0.493220,0.324099,0.251618,0.251618,0.130817,0.154977,0.082496,0.106656,1.000000,123.000000
2.638323,-0.423515,-0.330024,-0.306651,-0.236533,-0.166414,-0.283279,-0.213160,-0.353397,-0.353397,-0.446888,-0.470261,-0.493634,-0.400143,-0.400143,-0.306651,-0.330024,-0.236533,-0.376770,-0.330024,-0.353397,-0.330024,-0.330024,-0.446888,-0.446888,-0.353397,-0.376770,-0.306651,-0.283279,-0.166414,-0.236533,-0.189787,-0.166414,-0.283279,-0.353397,-0.376770,-0.353397,-0.446888,-0.400143,-0.376770,-0.259906,-0.213160,-0.236533,-0.236533,-0.259906,-0.283279,-0.400143,-0.423515,-0.423515,-0.446888,-0.400143,-0.330024,-0.283279,-0.213160,-0.189787,-0.189787,-0.213160,-0.236533,-0.236533,-0.283279,-0.259906,-0.259906,-0.283279,-0.166414,0.067314,0.043941,0.020568,-0.026178,0.020568,-0.143042,-0.143042,-0.236533,-0.189787,-0.119669,-0.002805,0.043941,0.090687,0.207551,0.137432,0.114059,0.020568,-0.049550,-0.189787,-0.283279,-0.213160,-0.283279,-0.213160,-0.189787,-0.213160,-0.119669,-0.166414,-0.283279,-0.259906,-0.330024,-0.423515,-0.446888,-0.493634,-0.423515,-0.400143,-0.306651,-0.376770,-0.189787,-0.166414,-0.236533,-0.236533,-0.306651,-0.306651,-0.306651,-0.353397,-0.353397,-0.306651,-0.330024,-0.213160,-0.189787,-0.213160,-0.259906,-0.259906,-0.213160,-0.330024,-0.306651,-0.306651,-0.376770,-0.236533,-0.119669,-0.096296,-0.143042,-0.049550,-0.072923,0.160805,0.160805,0.464652,0.885362,1.516428,2.357850,3.246017,3.900455,4.204302,4.461403,4.344539,4.134183,3.666727,2.942170,1.820275,0.488024,-1.148073,-2.620560,-3.812574,-4.420267,-4.256657,-3.648964,-2.877661,-2.129731,-1.592156,-1.264937,-1.054581,-0.937717,-0.844226,-0.750735,-0.680616,-0.517007,-0.493634,-0.353397,-0.353397,-0.283279,-0.283279,-0.330024,-0.259906,-0.306651,-0.400143,-0.400143,-0.259906,-0.283279,-0.143042,-0.143042,-0.119669,-0.166414,-0.119669,-0.283279,-0.236533,-0.330024,-0.283279,-0.306651,-0.236533,-0.189787,-0.072923,-0.049550,-0.096296,-0.119669,-0.119669,-0.166414,-0.213160,-0.213160,-0.236533,-0.189787,-0.189787,-0.143042,-0.143042,-0.049550,-0.026178,-0.072923,-0.026178,-0.166414,-0.166414,-0.283279,-0.236533,-0.213160,-0.119669,-0.072923,-0.026178,-0.026178,0.020568,-0.049550,-0.002805,0.043941,-0.049550,-0.096296,-0.096296,0.043941,0.043941,0.067314,0.254296,0.301042,0.347787,0.324415,0.347787,0.324415,0.254296,0.254296,0.277669,0.301042,0.371160,0.417906,0.488024,0.581516,0.675007,0.698380,0.675007,0.768498,0.768498,0.768498,0.838617,0.861989,0.861989,0.908735,0.955481,1.119090,1.072345,1.095718,1.142463,1.095718,1.048972,1.025599,0.978853,0.955481,0.908735,0.978853,0.932108,0.955481,0.815244,0.815244,0.768498,0.698380,0.558143,0.464652,0.464652,0.371160,0.371160,0.324415,0.277669,0.277669,0.160805,0.114059,0.043941,-0.049550,-0.166414,1.000000,123.000000
2.552635,-0.607262,-0.607262,-0.539063,-0.539063,-0.561796,-0.516330,-0.561796,-0.561796,-0.584529,-0.607262,-0.652729,-0.698195,-0.652729,-0.675462,-0.607262,-0.584529,-0.629995,-0.561796,-0.607262,-0.652729,-0.698195,-0.675462,-0.675462,-0.652729,-0.652729,-0.561796,-0.584529,-0.402665,-0.470864,-0.493597,-0.493597,-0.539063,-0.561796,-0.652729,-0.629995,-0.561796,-0.607262,-0.516330,-0.561796,-0.425398,-0.448131,-0.493597,-0.493597,-0.493597,-0.561796,-0.629995,-0.675462,-0.607262,-0.629995,-0.493597,-0.448131,-0.402665,-0.402665,-0.470864,-0.448131,-0.425398,-0.448131,-0.493597,-0.539063,-0.493597,-0.379932,-0.334466,-0.266266,-0.175334,-0.175334,-0.220800,-0.220800,-0.288999,-0.266266,-0.311732,-0.357199,-0.334466,-0.198067,-0.266266,-0.220800,-0.175334,-0.152601,-0.198067,-0.266266,-0.334466,-0.379932,-0.448131,-0.561796,-0.493597,-0.516330,-0.493597,-0.425398,-0.448131,-0.402665,-0.402665,-0.425398,-0.539063,-0.516330,-0.470864,-0.561796,-0.539063,-0.516330,-0.516330,-0.402665,-0.470864,-0.470864,-0.493597,-0.493597,-0.539063,-0.561796,-0.584529,-0.539063,-0.516330,-0.470864,-0.448131,-0.493597,-0.379932,-0.379932,-0.334466,-0.311732,-0.379932,-0.448131,-0.470864,-0.448131,-0.448131,-0.379932,-0.357199,-0.243533,-0.152601,-0.198067,-0.175334,-0.038936,0.051997,0.233861,0.665790,1.165917,2.029774,2.666300,3.257360,3.643822,3.643822,3.734755,3.802954,3.780221,3.552890,3.120962,2.348037,1.120451,-0.334466,-1.834848,-3.062434,-3.653494,-3.494363,-2.971502,-2.130378,-1.357454,-0.902792,-0.789127,-0.766394,-0.811860,-0.811860,-0.789127,-0.698195,-0.607262,-0.470864,-0.402665,-0.402665,-0.288999,-0.311732,-0.311732,-0.379932,-0.402665,-0.311732,-0.402665,-0.334466,-0.266266,-0.084402,-0.107135,-0.152601,-0.198067,-0.175334,-0.220800,-0.243533,-0.288999,-0.266266,-0.243533,-0.266266,-0.198067,-0.198067,-0.107135,-0.175334,-0.175334,-0.220800,-0.198067,-0.220800,-0.243533,-0.198067,-0.198067,-0.152601,-0.084402,-0.107135,0.029264,-0.038936,0.006531,-0.016202,-0.061669,-0.107135,-0.061669,-0.038936,-0.038936,-0.016202,0.051997,0.074730,0.165662,0.074730,0.074730,-0.016202,0.120196,0.029264,0.006531,-0.016202,0.051997,0.165662,0.279327,0.347527,0.392993,0.415726,0.415726,0.461192,0.392993,0.415726,0.438459,0.461192,0.506658,0.597591,0.643057,0.733989,0.824921,0.824921,0.870387,0.870387,0.847654,0.870387,0.824921,0.893120,0.938587,1.052252,1.165917,1.234117,1.279583,1.279583,1.234117,1.325049,1.347782,1.325049,1.325049,1.393248,1.393248,1.415981,1.506913,1.552380,1.529647,1.575113,1.506913,1.393248,1.325049,1.188650,1.052252,1.029519,0.915854,0.893120,0.847654,0.756722,0.711256,0.643057,0.574857,0.506658,0.370260,0.256594,1.000000,123.000000
2.329566,-0.564959,-0.420232,-0.396111,-0.468474,-0.396111,-0.468474,-0.540838,-0.540838,-0.637322,-0.613201,-0.589080,-0.444353,-0.492595,-0.468474,-0.347869,-0.299627,-0.396111,-0.516717,-0.516717,-0.589080,-0.613201,-0.661443,-0.564959,-0.516717,-0.492595,-0.492595,-0.444353,-0.516717,-0.492595,-0.444353,-0.468474,-0.492595,-0.540838,-0.613201,-0.540838,-0.444353,-0.444353,-0.420232,-0.420232,-0.420232,-0.371990,-0.468474,-0.516717,-0.540838,-0.661443,-0.661443,-0.589080,-0.492595,-0.564959,-0.492595,-0.420232,-0.396111,-0.420232,-0.444353,-0.540838,-0.516717,-0.564959,-0.589080,-0.540838,-0.420232,-0.420232,-0.251385,-0.179022,-0.203143,-0.130780,-0.130780,-0.203143,-0.251385,-0.275506,-0.275506,-0.323748,-0.251385,-0.179022,-0.203143,-0.154901,-0.179022,-0.179022,-0.154901,-0.203143,-0.371990,-0.468474,-0.420232,-0.420232,-0.444353,-0.396111,-0.444353,-0.371990,-0.420232,-0.396111,-0.468474,-0.444353,-0.492595,-0.540838,-0.540838,-0.564959,-0.492595,-0.420232,-0.396111,-0.420232,-0.396111,-0.420232,-0.323748,-0.492595,-0.420232,-0.564959,-0.637322,-0.613201,-0.516717,-0.516717,-0.396111,-0.371990,-0.275506,-0.299627,-0.396111,-0.420232,-0.420232,-0.516717,-0.396111,-0.468474,-0.396111,-0.347869,-0.251385,-0.227264,-0.130780,-0.203143,-0.203143,-0.251385,-0.130780,0.013946,0.375762,0.785820,1.581814,2.401929,3.101439,3.583860,3.873313,3.993918,3.945676,3.825071,3.704465,3.342650,2.715503,1.726540,0.496367,-0.950895,-2.325795,-3.387120,-3.797178,-3.483604,-2.904699,-2.108705,-1.481558,-1.095621,-0.902653,-0.926774,-0.830290,-0.806169,-0.685564,-0.540838,-0.420232,-0.347869,-0.371990,-0.420232,-0.396111,-0.396111,-0.347869,-0.323748,-0.299627,-0.227264,-0.227264,-0.106659,-0.082538,-0.154901,-0.227264,-0.227264,-0.227264,-0.347869,-0.299627,-0.299627,-0.227264,-0.154901,-0.106659,-0.058417,-0.154901,-0.179022,-0.106659,-0.227264,-0.251385,-0.203143,-0.227264,-0.323748,-0.179022,-0.154901,-0.130780,-0.082538,-0.034296,-0.058417,-0.058417,-0.082538,-0.106659,-0.106659,-0.154901,-0.058417,-0.106659,-0.058417,-0.010175,0.134552,0.110431,0.086309,0.013946,-0.058417,-0.082538,-0.058417,-0.058417,0.013946,0.013946,0.134552,0.134552,0.255157,0.303399,0.255157,0.351641,0.375762,0.303399,0.303399,0.303399,0.448125,0.520488,0.544609,0.641093,0.689335,0.834062,0.761699,0.834062,0.809941,0.713456,0.689335,0.761699,0.834062,0.906425,0.954667,1.051151,1.147635,1.268240,1.292361,1.316482,1.292361,1.195877,1.268240,1.219998,1.340604,1.388846,1.485330,1.533572,1.654177,1.485330,1.461209,1.364725,1.268240,1.099393,1.051151,0.954667,0.858183,0.785820,0.809941,0.809941,0.737578,0.689335,0.616972,0.472246,0.448125,0.303399,0.206915,0.182794,1.000000,123.000000
1.797364,-0.451999,-0.474493,-0.519480,-0.564467,-0.586961,-0.654442,-0.631948,-0.654442,-0.654442,-0.564467,-0.474493,-0.474493,-0.429506,-0.429506,-0.451999,-0.429506,-0.496987,-0.451999,-0.496987,-0.384518,-0.451999,-0.407012,-0.429506,-0.429506,-0.362025,-0.496987,-0.384518,-0.496987,-0.474493,-0.541974,-0.586961,-0.541974,-0.541974,-0.541974,-0.451999,-0.362025,-0.294544,-0.362025,-0.384518,-0.384518,-0.451999,-0.474493,-0.451999,-0.451999,-0.384518,-0.362025,-0.339531,-0.294544,-0.227063,-0.317038,-0.317038,-0.407012,-0.384518,-0.362025,-0.407012,-0.384518,-0.339531,-0.272050,-0.182076,-0.137088,-0.114595,-0.114595,-0.182076,-0.159582,-0.137088,-0.204569,-0.137088,-0.159582,-0.137088,-0.092101,-0.024620,-0.024620,-0.047114,-0.092101,-0.092101,-0.159582,-0.317038,-0.339531,-0.451999,-0.429506,-0.407012,-0.407012,-0.339531,-0.272050,-0.272050,-0.317038,-0.407012,-0.429506,-0.496987,-0.496987,-0.519480,-0.496987,-0.429506,-0.317038,-0.362025,-0.272050,-0.294544,-0.272050,-0.362025,-0.407012,-0.384518,-0.429506,-0.362025,-0.384518,-0.384518,-0.362025,-0.317038,-0.272050,-0.204569,-0.272050,-0.294544,-0.249557,-0.294544,-0.339531,-0.339531,-0.317038,-0.362025,-0.384518,-0.384518,-0.272050,-0.294544,-0.204569,-0.182076,-0.204569,-0.204569,-0.069608,-0.024620,0.087848,0.312784,0.740163,1.122555,1.887338,2.607135,3.304437,3.776803,3.979246,4.069221,4.069221,3.889271,3.551867,3.101994,2.224743,1.212529,-0.227063,-1.734136,-3.016273,-3.938512,-4.275917,-3.916018,-3.263703,-2.543907,-1.936579,-1.509200,-1.081821,-0.811897,-0.654442,-0.586961,-0.519480,-0.407012,-0.474493,-0.407012,-0.474493,-0.407012,-0.407012,-0.294544,-0.317038,-0.182076,-0.114595,-0.137088,-0.204569,-0.182076,-0.227063,-0.249557,-0.272050,-0.272050,-0.272050,-0.249557,-0.227063,-0.069608,-0.114595,-0.002127,-0.024620,-0.069608,-0.092101,-0.047114,-0.092101,-0.159582,-0.114595,-0.092101,-0.024620,-0.024620,0.042861,0.065354,-0.024620,-0.002127,-0.024620,-0.024620,-0.092101,-0.159582,-0.114595,-0.114595,-0.092101,-0.047114,0.042861,0.065354,0.065354,0.087848,0.042861,-0.002127,-0.024620,0.087848,-0.002127,0.065354,0.087848,0.110341,0.200316,0.222810,0.222810,0.200316,0.200316,0.200316,0.155329,0.177822,0.222810,0.200316,0.245303,0.267797,0.357771,0.470240,0.470240,0.515227,0.515227,0.447746,0.425252,0.537720,0.515227,0.650189,0.695176,0.807644,0.852631,0.897619,0.965099,1.010087,0.965099,0.942606,0.942606,0.942606,1.032580,1.077568,1.100061,1.122555,1.145049,1.212529,1.190036,1.145049,1.122555,1.010087,0.965099,0.942606,0.942606,0.897619,1.010087,0.920112,0.920112,0.942606,0.830138,0.785150,0.717670,0.627695,0.425252,0.380265,0.402759,0.312784,0.267797,1.000000,123.000000
2.001223,-0.438079,-0.413188,-0.338515,-0.338515,-0.413188,-0.388297,-0.438079,-0.512751,-0.562533,-0.662096,-0.562533,-0.537642,-0.487860,-0.462969,-0.462969,-0.338515,-0.363406,-0.438079,-0.413188,-0.413188,-0.462969,-0.487860,-0.512751,-0.438079,-0.462969,-0.413188,-0.388297,-0.313624,-0.288734,-0.313624,-0.413188,-0.413188,-0.462969,-0.537642,-0.587424,-0.537642,-0.537642,-0.413188,-0.313624,-0.338515,-0.313624,-0.413188,-0.388297,-0.388297,-0.462969,-0.438079,-0.462969,-0.363406,-0.413188,-0.313624,-0.313624,-0.288734,-0.338515,-0.214061,-0.388297,-0.363406,-0.338515,-0.413188,-0.388297,-0.288734,-0.263843,-0.189170,-0.089607,-0.089607,-0.039825,-0.164279,-0.189170,-0.189170,-0.214061,-0.263843,-0.189170,-0.139389,0.009956,0.009956,0.034847,-0.014934,-0.014934,-0.039825,-0.089607,-0.214061,-0.338515,-0.363406,-0.338515,-0.413188,-0.363406,-0.313624,-0.288734,-0.263843,-0.313624,-0.313624,-0.413188,-0.413188,-0.462969,-0.537642,-0.438079,-0.462969,-0.388297,-0.438079,-0.413188,-0.238952,-0.263843,-0.263843,-0.313624,-0.363406,-0.363406,-0.462969,-0.462969,-0.388297,-0.388297,-0.288734,-0.263843,-0.238952,-0.214061,-0.214061,-0.338515,-0.313624,-0.363406,-0.462969,-0.487860,-0.388297,-0.363406,-0.363406,-0.214061,-0.189170,-0.039825,0.034847,0.059738,0.333537,0.582445,1.055371,1.727424,2.474149,3.270655,3.743581,3.967599,4.067162,4.042271,4.042271,4.017380,3.644018,3.096420,2.125677,0.806463,-0.811441,-2.304891,-3.524542,-3.922795,-3.748559,-2.976944,-2.180437,-1.508384,-1.085240,-0.935895,-0.886114,-0.985677,-0.836332,-0.786550,-0.711878,-0.512751,-0.462969,-0.413188,-0.388297,-0.388297,-0.388297,-0.462969,-0.438079,-0.413188,-0.338515,-0.363406,-0.263843,-0.288734,-0.238952,-0.263843,-0.263843,-0.338515,-0.313624,-0.388297,-0.487860,-0.438079,-0.363406,-0.214061,-0.214061,-0.189170,-0.139389,-0.189170,-0.189170,-0.139389,-0.189170,-0.238952,-0.338515,-0.313624,-0.288734,-0.164279,-0.238952,-0.139389,-0.164279,-0.089607,-0.089607,-0.139389,-0.214061,-0.164279,-0.313624,-0.263843,-0.288734,-0.263843,-0.139389,-0.064716,-0.039825,0.009956,0.009956,0.009956,-0.039825,-0.039825,-0.139389,-0.114498,-0.064716,0.034847,0.059738,0.134410,0.233974,0.134410,0.258865,0.233974,0.233974,0.159301,0.209083,0.184192,0.258865,0.308646,0.333537,0.408210,0.433100,0.507773,0.632227,0.582445,0.607336,0.582445,0.682009,0.706900,0.731790,0.831354,0.930917,0.980699,1.130044,1.105153,1.179825,1.154935,1.179825,1.130044,1.130044,1.105153,1.154935,1.204716,1.229607,1.304280,1.304280,1.204716,1.229607,1.179825,1.030480,0.980699,0.856245,0.781572,0.756681,0.756681,0.756681,0.706900,0.632227,0.507773,0.358428,0.283755,0.184192,0.009956,-0.014934,1.000000,123.000000
2.342180,-0.335193,-0.233198,-0.233198,-0.335193,-0.360692,-0.437188,-0.437188,-0.564682,-0.513685,-0.539184,-0.437188,-0.437188,-0.360692,-0.258697,-0.284196,-0.335193,-0.309694,-0.360692,-0.386191,-0.360692,-0.437188,-0.411690,-0.411690,-0.284196,-0.284196,-0.207699,-0.309694,-0.233198,-0.284196,-0.360692,-0.386191,-0.411690,-0.411690,-0.462687,-0.462687,-0.513685,-0.437188,-0.258697,-0.335193,-0.335193,-0.309694,-0.360692,-0.411690,-0.437188,-0.411690,-0.411690,-0.411690,-0.335193,-0.309694,-0.284196,-0.309694,-0.258697,-0.258697,-0.335193,-0.437188,-0.386191,-0.462687,-0.462687,-0.360692,-0.258697,-0.233198,-0.156702,-0.131203,-0.156702,-0.233198,-0.233198,-0.335193,-0.258697,-0.233198,-0.233198,-0.080205,-0.054707,0.021790,0.072787,0.072787,0.098286,0.021790,-0.054707,-0.080205,-0.156702,-0.233198,-0.233198,-0.309694,-0.309694,-0.284196,-0.258697,-0.233198,-0.233198,-0.284196,-0.411690,-0.437188,-0.513685,-0.539184,-0.539184,-0.539184,-0.488186,-0.386191,-0.360692,-0.182200,-0.309694,-0.284196,-0.284196,-0.335193,-0.386191,-0.437188,-0.437188,-0.462687,-0.411690,-0.309694,-0.258697,-0.258697,-0.207699,-0.309694,-0.335193,-0.386191,-0.386191,-0.462687,-0.539184,-0.513685,-0.360692,-0.309694,-0.233198,-0.182200,-0.182200,-0.182200,-0.233198,-0.233198,-0.156702,0.021790,0.276778,0.659260,1.194735,2.010696,2.852156,3.566123,4.025101,4.203593,4.203593,4.101597,3.923106,3.515125,2.826658,1.832204,0.659260,-0.743174,-2.171107,-3.344051,-3.879526,-3.879526,-3.369550,-2.681083,-1.992615,-1.533637,-1.176654,-1.049160,-0.947164,-0.819670,-0.641179,-0.564682,-0.513685,-0.513685,-0.539184,-0.462687,-0.615680,-0.539184,-0.488186,-0.462687,-0.360692,-0.360692,-0.335193,-0.258697,-0.284196,-0.309694,-0.360692,-0.488186,-0.462687,-0.462687,-0.411690,-0.309694,-0.284196,-0.182200,-0.131203,-0.003709,-0.182200,-0.182200,-0.207699,-0.233198,-0.258697,-0.309694,-0.258697,-0.335193,-0.182200,-0.105704,-0.054707,-0.105704,-0.080205,-0.131203,-0.207699,-0.156702,-0.207699,-0.284196,-0.233198,-0.156702,-0.080205,-0.207699,-0.054707,-0.054707,-0.131203,-0.003709,-0.029208,-0.105704,-0.080205,-0.207699,-0.156702,-0.156702,0.021790,0.072787,0.174783,0.149284,0.200281,0.174783,0.174783,0.149284,0.098286,0.098286,0.123785,0.200281,0.276778,0.353274,0.378773,0.353274,0.480768,0.455269,0.506267,0.582763,0.506267,0.557265,0.633761,0.761255,0.863250,0.914248,0.888749,1.041742,1.041742,1.041742,1.016243,1.118238,1.041742,1.118238,1.092739,1.118238,1.169236,1.245732,1.220233,1.245732,1.220233,1.245732,1.143737,1.169236,1.067241,1.092739,1.143737,1.016243,0.990744,1.041742,1.016243,0.914248,0.888749,0.761255,0.608262,0.480768,0.327775,0.327775,0.225780,1.000000,123.000000
1.710501,-0.431354,-0.385782,-0.476925,-0.499711,-0.545282,-0.613639,-0.681996,-0.704782,-0.636425,-0.659211,-0.590854,-0.545282,-0.522497,-0.545282,-0.568068,-0.613639,-0.590854,-0.590854,-0.590854,-0.568068,-0.613639,-0.568068,-0.476925,-0.431354,-0.431354,-0.385782,-0.362997,-0.476925,-0.431354,-0.522497,-0.613639,-0.613639,-0.613639,-0.659211,-0.568068,-0.499711,-0.545282,-0.454139,-0.499711,-0.476925,-0.590854,-0.522497,-0.522497,-0.499711,-0.568068,-0.545282,-0.499711,-0.454139,-0.431354,-0.294640,-0.317425,-0.408568,-0.385782,-0.454139,-0.454139,-0.476925,-0.522497,-0.499711,-0.454139,-0.431354,-0.431354,-0.294640,-0.317425,-0.317425,-0.294640,-0.317425,-0.317425,-0.294640,-0.226283,-0.180711,-0.112354,-0.089568,-0.043997,0.001574,0.024360,-0.043997,0.024360,-0.043997,-0.112354,-0.157926,-0.203497,-0.249068,-0.249068,-0.249068,-0.226283,-0.180711,-0.249068,-0.249068,-0.362997,-0.385782,-0.431354,-0.545282,-0.431354,-0.431354,-0.385782,-0.317425,-0.271854,-0.203497,-0.294640,-0.249068,-0.317425,-0.362997,-0.340211,-0.408568,-0.317425,-0.317425,-0.317425,-0.249068,-0.226283,-0.180711,-0.203497,-0.294640,-0.317425,-0.340211,-0.431354,-0.408568,-0.385782,-0.340211,-0.294640,-0.271854,-0.249068,-0.112354,-0.180711,-0.112354,-0.112354,-0.089568,-0.135140,-0.043997,0.001574,0.206645,0.525645,1.072502,1.710501,2.439643,3.145999,3.738427,3.966284,4.171355,4.125784,3.966284,3.578927,3.009285,2.257357,1.345930,0.047146,-1.251639,-2.687137,-3.575779,-4.008707,-3.985921,-3.530207,-2.914994,-2.254209,-1.684567,-1.251639,-1.023782,-0.773139,-0.590854,-0.522497,-0.408568,-0.408568,-0.408568,-0.385782,-0.431354,-0.385782,-0.362997,-0.249068,-0.203497,-0.066783,-0.135140,-0.043997,-0.089568,-0.112354,-0.066783,-0.203497,-0.203497,-0.203497,-0.135140,-0.066783,-0.021211,0.069931,0.047146,0.115503,0.001574,0.047146,-0.043997,-0.135140,-0.157926,-0.021211,0.001574,0.069931,0.069931,0.024360,0.183860,0.115503,0.115503,0.001574,0.024360,-0.043997,-0.112354,-0.043997,-0.066783,0.001574,0.092717,0.069931,0.206645,0.161074,0.115503,0.069931,0.069931,0.001574,0.001574,0.024360,0.138288,0.161074,0.206645,0.275003,0.297788,0.275003,0.252217,0.275003,0.252217,0.252217,0.161074,0.206645,0.297788,0.388931,0.434502,0.502859,0.548431,0.480074,0.616788,0.594002,0.616788,0.616788,0.571216,0.571216,0.707931,0.821859,0.844645,0.913002,1.049716,1.026930,1.026930,1.026930,0.958573,0.913002,0.981359,0.958573,0.981359,0.981359,1.095287,1.095287,1.118073,1.140859,1.095287,1.095287,1.095287,0.958573,0.958573,0.913002,0.890216,0.935787,0.867430,0.844645,0.890216,0.730716,0.662359,0.616788,0.457288,0.320574,0.229431,0.252217,0.115503,1.000000,123.000000
2.063746,-0.198483,-0.198483,-0.224788,-0.224788,-0.330008,-0.303703,-0.303703,-0.198483,-0.277398,-0.251093,-0.172178,-0.145873,-0.040653,-0.172178,-0.145873,-0.251093,-0.251093,-0.224788,-0.382618,-0.330008,-0.277398,-0.356313,-0.277398,-0.198483,-0.198483,-0.198483,-0.198483,-0.251093,-0.330008,-0.330008,-0.382618,-0.330008,-0.303703,-0.330008,-0.224788,-0.145873,-0.119568,-0.145873,-0.198483,-0.224788,-0.303703,-0.277398,-0.382618,-0.356313,-0.408923,-0.330008,-0.251093,-0.224788,-0.251093,-0.224788,-0.251093,-0.303703,-0.408923,-0.382618,-0.408923,-0.461533,-0.356313,-0.251093,-0.172178,-0.145873,-0.066958,-0.066958,0.011957,-0.066958,-0.066958,-0.198483,-0.145873,-0.198483,-0.198483,-0.119568,-0.040653,0.038262,0.064567,0.117177,0.117177,0.064567,0.011957,-0.093263,-0.172178,-0.277398,-0.251093,-0.251093,-0.330008,-0.330008,-0.198483,-0.251093,-0.303703,-0.303703,-0.356313,-0.487838,-0.487838,-0.514143,-0.408923,-0.435228,-0.303703,-0.330008,-0.303703,-0.303703,-0.303703,-0.382618,-0.408923,-0.514143,-0.540448,-0.487838,-0.514143,-0.514143,-0.461533,-0.408923,-0.303703,-0.356313,-0.382618,-0.356313,-0.408923,-0.461533,-0.461533,-0.514143,-0.382618,-0.303703,-0.330008,-0.303703,-0.145873,-0.172178,-0.198483,-0.145873,-0.198483,-0.224788,-0.224788,-0.093263,0.143482,0.590667,1.090461,1.905916,2.773981,3.431605,3.984010,4.141840,4.141840,4.168145,4.010315,3.878790,3.352690,2.510931,1.406121,-0.198483,-1.776782,-3.223557,-3.960096,-4.012706,-3.486607,-2.644847,-1.882002,-1.303293,-1.066548,-0.935023,-0.935023,-0.829803,-0.829803,-0.803498,-0.671973,-0.619363,-0.671973,-0.645668,-0.698278,-0.645668,-0.645668,-0.593058,-0.435228,-0.382618,-0.330008,-0.330008,-0.356313,-0.330008,-0.435228,-0.408923,-0.382618,-0.382618,-0.461533,-0.356313,-0.356313,-0.303703,-0.172178,-0.224788,-0.251093,-0.382618,-0.356313,-0.514143,-0.435228,-0.435228,-0.435228,-0.382618,-0.330008,-0.303703,-0.277398,-0.172178,-0.251093,-0.303703,-0.330008,-0.356313,-0.382618,-0.251093,-0.224788,-0.303703,-0.172178,-0.119568,-0.040653,-0.014348,-0.066958,-0.145873,-0.198483,-0.145873,-0.145873,-0.251093,-0.251093,-0.093263,-0.119568,-0.040653,-0.014348,0.064567,0.090872,0.117177,0.064567,0.011957,0.038262,0.038262,0.117177,0.248702,0.275007,0.353922,0.538057,0.459142,0.538057,0.459142,0.485447,0.564362,0.459142,0.564362,0.616972,0.590667,0.801106,0.932631,0.906326,0.880021,0.906326,0.932631,0.880021,0.906326,0.985241,0.932631,1.011546,1.064156,1.248291,1.195681,1.300901,1.274596,1.353511,1.221986,1.169376,1.064156,1.011546,1.011546,0.958936,0.985241,0.906326,0.932631,0.906326,0.774801,0.669582,0.590667,0.353922,0.327617,0.143482,0.038262,0.064567,0.038262,1.000000,123.000000
2.223671,-0.392274,-0.469975,-0.444075,-0.418174,-0.418174,-0.495876,-0.547677,-0.469975,-0.495876,-0.444075,-0.314573,-0.314573,-0.288672,-0.262772,-0.236871,-0.314573,-0.418174,-0.366374,-0.418174,-0.495876,-0.444075,-0.444075,-0.366374,-0.314573,-0.262772,-0.340473,-0.288672,-0.418174,-0.444075,-0.547677,-0.495876,-0.547677,-0.521776,-0.495876,-0.392274,-0.418174,-0.314573,-0.288672,-0.314573,-0.340473,-0.366374,-0.495876,-0.469975,-0.469975,-0.418174,-0.314573,-0.366374,-0.366374,-0.288672,-0.288672,-0.288672,-0.366374,-0.418174,-0.521776,-0.547677,-0.547677,-0.495876,-0.444075,-0.366374,-0.340473,-0.288672,-0.236871,-0.236871,-0.262772,-0.288672,-0.262772,-0.288672,-0.185070,-0.185070,-0.236871,-0.107369,-0.081469,-0.055568,0.022133,-0.055568,-0.029668,-0.029668,-0.107369,-0.159170,-0.185070,-0.314573,-0.392274,-0.340473,-0.340473,-0.314573,-0.288672,-0.418174,-0.392274,-0.392274,-0.469975,-0.521776,-0.495876,-0.469975,-0.469975,-0.418174,-0.340473,-0.262772,-0.314573,-0.288672,-0.366374,-0.366374,-0.469975,-0.444075,-0.469975,-0.444075,-0.469975,-0.392274,-0.366374,-0.288672,-0.392274,-0.366374,-0.392274,-0.469975,-0.444075,-0.495876,-0.469975,-0.495876,-0.418174,-0.340473,-0.340473,-0.288672,-0.262772,-0.159170,-0.210971,-0.159170,-0.262772,-0.288672,-0.210971,0.022133,0.203436,0.695545,1.368956,2.197770,3.026584,3.648195,4.114403,4.166204,4.140303,3.907199,3.492792,2.845281,1.679761,0.255237,-1.221088,-2.723314,-3.707530,-4.018336,-3.681630,-3.034119,-2.308907,-1.764997,-1.402391,-1.143387,-1.117486,-0.936183,-0.858482,-0.703079,-0.573577,-0.547677,-0.444075,-0.469975,-0.547677,-0.599477,-0.625378,-0.599477,-0.521776,-0.469975,-0.418174,-0.262772,-0.288672,-0.262772,-0.236871,-0.340473,-0.340473,-0.418174,-0.392274,-0.366374,-0.288672,-0.288672,-0.210971,-0.159170,-0.133270,-0.107369,-0.133270,-0.185070,-0.185070,-0.262772,-0.314573,-0.340473,-0.262772,-0.159170,-0.210971,-0.159170,-0.107369,-0.029668,-0.029668,-0.055568,-0.107369,-0.159170,-0.159170,-0.159170,-0.107369,-0.081469,0.048034,0.073934,0.073934,0.048034,0.073934,0.073934,0.073934,0.073934,0.022133,-0.029668,0.048034,-0.029668,0.125735,0.125735,0.281138,0.177536,0.255237,0.151635,0.229337,0.151635,0.281138,0.332938,0.436540,0.462441,0.566042,0.617843,0.695545,0.773246,0.773246,0.721445,0.773246,0.695545,0.721445,0.799146,0.902748,0.876848,0.954549,1.058151,1.187653,1.187653,1.161753,1.161753,1.109952,1.161753,1.161753,1.265354,1.187653,1.343056,1.498458,1.524359,1.472558,1.420757,1.472558,1.420757,1.343056,1.317155,1.239454,1.161753,1.135852,1.084051,1.032250,1.032250,0.928649,0.825047,0.773246,0.669644,0.410640,0.332938,0.229337,0.099834,0.177536,1.000000,123.000000
1.848147,-0.393984,-0.321657,-0.393984,-0.321657,-0.321657,-0.321657,-0.321657,-0.273439,-0.297548,-0.345766,-0.393984,-0.393984,-0.393984,-0.442202,-0.418093,-0.442202,-0.418093,-0.297548,-0.297548,-0.297548,-0.369875,-0.369875,-0.466311,-0.393984,-0.345766,-0.418093,-0.369875,-0.345766,-0.225221,-0.249330,-0.201112,-0.201112,-0.297548,-0.321657,-0.369875,-0.442202,-0.466311,-0.369875,-0.393984,-0.369875,-0.369875,-0.345766,-0.345766,-0.321657,-0.321657,-0.345766,-0.369875,-0.369875,-0.442202,-0.393984,-0.345766,-0.321657,-0.297548,-0.297548,-0.177003,-0.225221,-0.249330,-0.273439,-0.273439,-0.273439,-0.177003,-0.177003,-0.201112,-0.177003,-0.177003,-0.152894,-0.056459,-0.128786,-0.104677,-0.152894,-0.104677,-0.128786,-0.104677,-0.080568,-0.008241,-0.008241,0.015868,-0.008241,-0.032350,-0.104677,-0.152894,-0.225221,-0.249330,-0.345766,-0.297548,-0.369875,-0.345766,-0.297548,-0.249330,-0.225221,-0.152894,-0.177003,-0.297548,-0.273439,-0.321657,-0.297548,-0.418093,-0.369875,-0.369875,-0.321657,-0.297548,-0.249330,-0.177003,-0.201112,-0.297548,-0.297548,-0.273439,-0.321657,-0.369875,-0.369875,-0.393984,-0.273439,-0.201112,-0.177003,-0.152894,-0.249330,-0.201112,-0.249330,-0.321657,-0.321657,-0.345766,-0.321657,-0.321657,-0.273439,-0.152894,-0.152894,-0.008241,0.136413,0.160522,0.377502,0.715027,1.197206,1.920474,2.788395,3.511663,4.042060,4.259040,4.403694,4.331367,3.993842,3.487554,2.643742,1.607058,0.232848,-1.334232,-2.708441,-3.817452,-4.179086,-4.034433,-3.479927,-2.780768,-2.178045,-1.599430,-1.382450,-1.117252,-1.093143,-0.948489,-0.803836,-0.731509,-0.562746,-0.490420,-0.418093,-0.345766,-0.273439,-0.249330,-0.345766,-0.273439,-0.345766,-0.345766,-0.249330,-0.225221,-0.249330,-0.177003,-0.152894,-0.128786,-0.056459,-0.177003,-0.177003,-0.225221,-0.345766,-0.345766,-0.321657,-0.225221,-0.249330,-0.152894,-0.080568,-0.080568,-0.032350,-0.128786,-0.201112,-0.177003,-0.225221,-0.297548,-0.297548,-0.225221,-0.128786,-0.080568,-0.056459,-0.032350,-0.032350,-0.032350,-0.080568,-0.104677,-0.201112,-0.128786,-0.225221,-0.177003,-0.177003,-0.104677,-0.080568,-0.080568,-0.008241,-0.056459,-0.008241,-0.080568,-0.056459,-0.032350,-0.080568,-0.080568,0.039977,0.088195,0.256957,0.281066,0.256957,0.256957,0.305175,0.208740,0.208740,0.208740,0.281066,0.281066,0.329284,0.401611,0.449829,0.546265,0.594482,0.594482,0.570374,0.570374,0.570374,0.666809,0.618591,0.715027,0.763245,0.907899,0.932008,0.980225,1.052552,1.028443,1.028443,1.028443,1.004334,0.956116,1.052552,1.028443,1.052552,1.076661,1.173097,1.100770,1.173097,1.076661,1.028443,0.883790,0.811463,0.763245,0.739136,0.666809,0.690918,0.666809,0.666809,0.666809,0.546265,0.449829,0.473938,1.000000,123.000000
2.298866,-0.330479,-0.148247,-0.278412,-0.278412,-0.252379,-0.304445,-0.382545,-0.460644,-0.434611,-0.408578,-0.330479,-0.278412,-0.226346,-0.122214,-0.200313,-0.226346,-0.304445,-0.382545,-0.434611,-0.434611,-0.564777,-0.460644,-0.382545,-0.356512,-0.304445,-0.304445,-0.252379,-0.304445,-0.278412,-0.356512,-0.408578,-0.486677,-0.408578,-0.434611,-0.356512,-0.330479,-0.278412,-0.252379,-0.200313,-0.252379,-0.304445,-0.382545,-0.460644,-0.434611,-0.564777,-0.434611,-0.408578,-0.330479,-0.304445,-0.252379,-0.278412,-0.226346,-0.304445,-0.304445,-0.356512,-0.356512,-0.330479,-0.330479,-0.252379,-0.252379,-0.122214,-0.018081,0.033985,0.007952,-0.018081,0.007952,-0.070147,-0.148247,-0.122214,-0.148247,-0.122214,-0.070147,0.007952,0.112084,0.060018,0.112084,0.060018,-0.044114,-0.044114,-0.148247,-0.148247,-0.174280,-0.200313,-0.252379,-0.200313,-0.174280,-0.304445,-0.226346,-0.200313,-0.278412,-0.434611,-0.382545,-0.330479,-0.408578,-0.356512,-0.330479,-0.304445,-0.278412,-0.252379,-0.356512,-0.434611,-0.408578,-0.512710,-0.512710,-0.538744,-0.486677,-0.486677,-0.486677,-0.382545,-0.330479,-0.356512,-0.356512,-0.460644,-0.434611,-0.512710,-0.590810,-0.512710,-0.564777,-0.538744,-0.330479,-0.408578,-0.304445,-0.330479,-0.330479,-0.356512,-0.408578,-0.382545,-0.252379,-0.044114,0.060018,0.710846,1.413740,2.194734,3.105893,3.730688,3.938953,4.121185,4.121185,4.043085,3.991019,3.626555,3.105893,2.194734,0.945144,-0.590810,-2.048664,-3.246188,-3.897016,-3.818916,-3.246188,-2.517261,-1.840399,-1.319737,-1.137505,-0.851141,-0.981307,-0.903207,-0.825108,-0.720975,-0.694942,-0.564777,-0.564777,-0.486677,-0.590810,-0.590810,-0.538744,-0.434611,-0.382545,-0.434611,-0.252379,-0.330479,-0.382545,-0.330479,-0.330479,-0.460644,-0.434611,-0.408578,-0.382545,-0.278412,-0.304445,-0.278412,-0.226346,-0.304445,-0.174280,-0.252379,-0.304445,-0.304445,-0.382545,-0.356512,-0.382545,-0.226346,-0.252379,-0.174280,-0.070147,-0.148247,-0.096181,-0.122214,-0.174280,-0.200313,-0.304445,-0.304445,-0.278412,-0.200313,-0.174280,-0.070147,-0.044114,-0.018081,-0.096181,-0.148247,-0.174280,-0.200313,-0.252379,-0.226346,-0.200313,-0.122214,-0.018081,0.060018,0.190184,0.190184,0.242250,0.164151,0.086051,0.060018,0.060018,0.086051,0.216217,0.294316,0.346382,0.372416,0.502581,0.502581,0.528614,0.606714,0.528614,0.476548,0.450515,0.554647,0.528614,0.632747,0.736879,0.893078,0.919111,1.023244,0.971177,1.101343,1.023244,0.997210,1.075310,1.127376,1.127376,1.153409,1.309608,1.283575,1.387707,1.387707,1.335641,1.335641,1.283575,1.153409,1.023244,0.841012,0.893078,0.867045,0.762912,0.788945,0.762912,0.684813,0.632747,0.476548,0.372416,0.398449,0.190184,0.112084,0.060018,1.000000,123.000000
2.117379,-0.457402,-0.457402,-0.406916,-0.507888,-0.432159,-0.558374,-0.533131,-0.457402,-0.482645,-0.432159,-0.457402,-0.457402,-0.533131,-0.533131,-0.558374,-0.608860,-0.608860,-0.533131,-0.533131,-0.482645,-0.406916,-0.381673,-0.381673,-0.381673,-0.457402,-0.457402,-0.482645,-0.533131,-0.507888,-0.406916,-0.381673,-0.356431,-0.356431,-0.331188,-0.331188,-0.406916,-0.406916,-0.432159,-0.507888,-0.558374,-0.482645,-0.482645,-0.482645,-0.457402,-0.280702,-0.280702,-0.230216,-0.230216,-0.305945,-0.356431,-0.406916,-0.406916,-0.381673,-0.457402,-0.432159,-0.305945,-0.331188,-0.154487,-0.204973,-0.204973,-0.179730,-0.230216,-0.305945,-0.331188,-0.356431,-0.230216,-0.356431,-0.255459,-0.154487,-0.154487,-0.028272,-0.053515,-0.028272,-0.078758,-0.078758,-0.129244,-0.179730,-0.230216,-0.305945,-0.255459,-0.255459,-0.255459,-0.230216,-0.255459,-0.305945,-0.381673,-0.406916,-0.482645,-0.533131,-0.482645,-0.583617,-0.432159,-0.533131,-0.432159,-0.432159,-0.457402,-0.457402,-0.432159,-0.533131,-0.482645,-0.507888,-0.507888,-0.432159,-0.356431,-0.280702,-0.305945,-0.255459,-0.280702,-0.356431,-0.331188,-0.406916,-0.381673,-0.457402,-0.432159,-0.406916,-0.356431,-0.305945,-0.331188,-0.255459,-0.356431,-0.305945,-0.356431,-0.406916,-0.406916,-0.356431,-0.406916,-0.204973,0.097943,0.350372,0.779502,1.360090,2.016407,2.723210,3.278555,3.732928,3.960115,4.010601,4.035844,3.859143,3.556228,3.076611,2.218351,1.183390,-0.129244,-1.517606,-2.855483,-3.688501,-3.991416,-3.688501,-3.107913,-2.426353,-1.770036,-1.416635,-1.037990,-0.911776,-0.760318,-0.684589,-0.608860,-0.583617,-0.583617,-0.558374,-0.533131,-0.457402,-0.381673,-0.255459,-0.255459,-0.154487,-0.129244,-0.255459,-0.230216,-0.230216,-0.255459,-0.255459,-0.280702,-0.331188,-0.255459,-0.179730,-0.104001,-0.129244,-0.129244,-0.104001,-0.104001,-0.204973,-0.204973,-0.230216,-0.179730,-0.154487,-0.129244,-0.053515,0.072700,0.022214,-0.028272,-0.053515,-0.078758,-0.078758,-0.154487,-0.179730,-0.154487,-0.179730,-0.053515,-0.078758,0.022214,-0.003029,0.022214,-0.003029,-0.028272,-0.129244,-0.230216,-0.230216,-0.179730,-0.204973,-0.028272,0.123186,0.072700,0.224157,0.198914,0.173672,0.123186,0.198914,0.072700,0.123186,0.047457,0.173672,0.249400,0.299886,0.375615,0.350372,0.299886,0.375615,0.350372,0.476587,0.350372,0.350372,0.476587,0.476587,0.552316,0.602802,0.729017,0.855231,0.779502,0.905717,0.905717,0.905717,0.880474,0.905717,0.930960,0.956203,1.031932,1.183390,1.208633,1.233876,1.183390,1.334847,1.233876,1.233876,1.132904,1.183390,1.132904,1.107661,1.183390,1.183390,1.208633,1.158147,1.132904,1.107661,0.981446,0.855231,0.754260,0.703774,0.628045,0.602802,0.628045,0.628045,0.653288,1.000000,123.000000
2.186922,-0.341057,-0.366592,-0.264451,-0.238916,-0.238916,-0.238916,-0.315521,-0.315521,-0.392127,-0.417662,-0.443197,-0.417662,-0.392127,-0.392127,-0.289986,-0.264451,-0.289986,-0.213381,-0.187846,-0.264451,-0.366592,-0.417662,-0.417662,-0.341057,-0.315521,-0.264451,-0.187846,-0.111240,-0.264451,-0.238916,-0.238916,-0.315521,-0.341057,-0.443197,-0.443197,-0.443197,-0.417662,-0.341057,-0.264451,-0.315521,-0.341057,-0.238916,-0.264451,-0.289986,-0.392127,-0.392127,-0.341057,-0.341057,-0.289986,-0.341057,-0.213381,-0.213381,-0.289986,-0.213381,-0.238916,-0.264451,-0.392127,-0.468732,-0.315521,-0.315521,-0.213381,-0.213381,-0.085705,-0.060170,-0.009100,-0.085705,-0.111240,-0.187846,-0.162311,-0.136775,-0.111240,-0.034635,-0.009100,0.067506,0.144111,0.195181,0.067506,0.067506,-0.060170,-0.111240,-0.289986,-0.392127,-0.341057,-0.392127,-0.289986,-0.341057,-0.289986,-0.238916,-0.341057,-0.341057,-0.443197,-0.366592,-0.392127,-0.494267,-0.494267,-0.392127,-0.315521,-0.315521,-0.187846,-0.238916,-0.187846,-0.238916,-0.264451,-0.341057,-0.443197,-0.417662,-0.341057,-0.417662,-0.392127,-0.315521,-0.289986,-0.238916,-0.264451,-0.264451,-0.213381,-0.341057,-0.443197,-0.417662,-0.443197,-0.417662,-0.392127,-0.315521,-0.289986,-0.213381,-0.238916,-0.162311,-0.136775,-0.187846,-0.060170,0.093041,0.450533,0.961236,1.599614,2.467809,3.284933,3.923312,4.204198,4.408479,4.280804,3.948847,3.489214,2.774230,1.854965,0.782490,-0.596408,-1.949770,-3.252063,-3.992582,-4.196863,-3.839371,-3.252063,-2.434938,-1.898700,-1.439068,-1.081576,-0.877295,-0.800689,-0.647478,-0.570873,-0.545338,-0.494267,-0.392127,-0.392127,-0.443197,-0.494267,-0.494267,-0.494267,-0.494267,-0.443197,-0.417662,-0.392127,-0.315521,-0.366592,-0.264451,-0.417662,-0.341057,-0.392127,-0.417662,-0.341057,-0.315521,-0.264451,-0.264451,-0.162311,-0.111240,-0.111240,-0.111240,-0.162311,-0.162311,-0.238916,-0.392127,-0.315521,-0.213381,-0.162311,-0.111240,-0.111240,-0.111240,-0.111240,-0.136775,-0.187846,-0.162311,-0.264451,-0.289986,-0.315521,-0.187846,-0.136775,-0.009100,0.041970,0.093041,0.067506,0.093041,0.041970,0.041970,-0.060170,-0.187846,-0.060170,0.016435,0.016435,0.195181,0.246252,0.297322,0.322857,0.195181,0.220716,0.169646,0.169646,0.118576,0.169646,0.271787,0.450533,0.476068,0.578208,0.603744,0.705884,0.705884,0.731419,0.705884,0.705884,0.629279,0.756954,0.756954,0.859095,0.910165,1.114446,1.114446,1.114446,1.063376,1.063376,1.063376,1.063376,0.910165,1.063376,1.037841,1.063376,1.191052,1.191052,1.242122,1.088911,1.165517,1.037841,0.986771,0.986771,0.859095,0.833560,0.731419,0.705884,0.603744,0.629279,0.552673,0.552673,0.424998,0.348392,0.195181,0.144111,-0.034635,1.000000,123.000000
2.177772,-0.508722,-0.483615,-0.458507,-0.433400,-0.408292,-0.408292,-0.383185,-0.458507,-0.408292,-0.458507,-0.533829,-0.408292,-0.508722,-0.458507,-0.433400,-0.483615,-0.332970,-0.358077,-0.358077,-0.433400,-0.458507,-0.508722,-0.483615,-0.533829,-0.508722,-0.408292,-0.383185,-0.332970,-0.358077,-0.383185,-0.358077,-0.383185,-0.458507,-0.508722,-0.533829,-0.483615,-0.508722,-0.483615,-0.383185,-0.307863,-0.282755,-0.307863,-0.307863,-0.408292,-0.383185,-0.408292,-0.433400,-0.433400,-0.408292,-0.433400,-0.332970,-0.358077,-0.232540,-0.282755,-0.383185,-0.383185,-0.358077,-0.383185,-0.408292,-0.408292,-0.483615,-0.358077,-0.232540,-0.081896,-0.056788,-0.056788,-0.081896,-0.107003,-0.182325,-0.157218,-0.182325,-0.081896,-0.107003,-0.056788,-0.006574,0.043641,0.068749,0.093856,-0.107003,-0.107003,-0.232540,-0.332970,-0.433400,-0.433400,-0.508722,-0.483615,-0.433400,-0.358077,-0.307863,-0.358077,-0.282755,-0.282755,-0.307863,-0.383185,-0.458507,-0.533829,-0.433400,-0.383185,-0.358077,-0.383185,-0.232540,-0.307863,-0.257648,-0.257648,-0.383185,-0.383185,-0.408292,-0.433400,-0.458507,-0.433400,-0.383185,-0.332970,-0.358077,-0.282755,-0.282755,-0.332970,-0.383185,-0.408292,-0.383185,-0.358077,-0.332970,-0.257648,-0.257648,-0.132111,-0.107003,-0.081896,0.118964,0.219393,0.520682,0.947508,1.550086,2.253094,3.006316,3.558680,3.910183,4.010613,4.060828,4.085935,4.010613,3.834861,3.257391,2.479061,1.349227,-0.132111,-1.688771,-2.919034,-3.672256,-3.772686,-3.270538,-2.592638,-1.914737,-1.437696,-1.086193,-0.985763,-0.935548,-0.860226,-0.935548,-0.734689,-0.659366,-0.558937,-0.383185,-0.408292,-0.408292,-0.408292,-0.433400,-0.508722,-0.584044,-0.533829,-0.458507,-0.483615,-0.307863,-0.332970,-0.257648,-0.232540,-0.207433,-0.282755,-0.358077,-0.358077,-0.332970,-0.332970,-0.257648,-0.307863,-0.182325,-0.232540,-0.081896,-0.081896,-0.107003,-0.132111,-0.182325,-0.207433,-0.282755,-0.332970,-0.332970,-0.332970,-0.307863,-0.232540,-0.207433,-0.132111,-0.207433,-0.207433,-0.182325,-0.332970,-0.282755,-0.232540,-0.157218,-0.182325,-0.132111,-0.031681,-0.031681,-0.031681,-0.006574,-0.031681,-0.031681,-0.006574,-0.006574,-0.081896,-0.081896,-0.031681,-0.006574,0.068749,0.144071,0.244501,0.118964,0.093856,0.144071,0.118964,0.093856,0.194286,0.144071,0.194286,0.344930,0.445360,0.520682,0.621112,0.570897,0.696434,0.570897,0.596004,0.596004,0.621112,0.696434,0.721542,0.872186,0.847079,0.922401,0.972616,0.972616,0.997723,0.997723,0.947508,0.922401,0.947508,0.972616,1.073045,1.123260,1.248797,1.198582,1.223690,1.299012,1.273905,1.198582,1.148368,1.123260,1.047938,0.997723,0.947508,0.947508,0.972616,0.922401,0.821971,0.746649,0.621112,0.445360,0.319823,1.000000,123.000000
1.891789,-0.577951,-0.627845,-0.577951,-0.528057,-0.553004,-0.453217,-0.428270,-0.428270,-0.428270,-0.553004,-0.553004,-0.553004,-0.677738,-0.752579,-0.652791,-0.677738,-0.627845,-0.553004,-0.528057,-0.428270,-0.428270,-0.353429,-0.428270,-0.428270,-0.478163,-0.553004,-0.503110,-0.478163,-0.503110,-0.453217,-0.428270,-0.278588,-0.403323,-0.453217,-0.478163,-0.528057,-0.528057,-0.528057,-0.577951,-0.602898,-0.553004,-0.478163,-0.453217,-0.428270,-0.478163,-0.428270,-0.453217,-0.453217,-0.428270,-0.503110,-0.503110,-0.403323,-0.353429,-0.378376,-0.303535,-0.278588,-0.303535,-0.303535,-0.328482,-0.328482,-0.403323,-0.403323,-0.353429,-0.353429,-0.178801,-0.178801,-0.079014,-0.054067,-0.103960,-0.128907,-0.153854,-0.153854,-0.153854,-0.128907,-0.128907,-0.128907,-0.054067,-0.029120,-0.004173,-0.029120,-0.153854,-0.228695,-0.278588,-0.403323,-0.478163,-0.378376,-0.428270,-0.378376,-0.403323,-0.378376,-0.378376,-0.328482,-0.378376,-0.378376,-0.428270,-0.428270,-0.528057,-0.528057,-0.528057,-0.428270,-0.328482,-0.303535,-0.278588,-0.353429,-0.278588,-0.303535,-0.353429,-0.428270,-0.378376,-0.453217,-0.428270,-0.453217,-0.278588,-0.328482,-0.278588,-0.303535,-0.303535,-0.378376,-0.328482,-0.403323,-0.453217,-0.528057,-0.503110,-0.453217,-0.328482,-0.278588,-0.153854,-0.079014,0.120561,0.370030,0.744233,1.218223,1.891789,2.640195,3.238920,3.737857,4.112060,4.261741,4.236794,3.962379,3.438495,2.665142,1.667267,0.394977,-0.952154,-2.324231,-3.496734,-3.995671,-3.845990,-3.297159,-2.523806,-1.925082,-1.426144,-1.126782,-0.952154,-0.927207,-0.877313,-0.802473,-0.702685,-0.528057,-0.403323,-0.278588,-0.303535,-0.228695,-0.303535,-0.203748,-0.253642,-0.278588,-0.353429,-0.378376,-0.328482,-0.378376,-0.303535,-0.253642,-0.203748,-0.103960,-0.128907,-0.079014,-0.128907,-0.128907,-0.203748,-0.228695,-0.228695,-0.103960,-0.079014,-0.054067,-0.054067,-0.004173,-0.004173,-0.029120,-0.103960,-0.128907,-0.178801,-0.128907,-0.128907,-0.103960,-0.054067,-0.054067,-0.054067,-0.029120,-0.029120,-0.029120,-0.079014,-0.128907,-0.203748,-0.128907,-0.079014,-0.029120,0.020774,0.045721,0.120561,0.170455,0.170455,0.145508,0.170455,0.070668,0.170455,0.095615,0.145508,0.145508,0.195402,0.320136,0.345083,0.419924,0.419924,0.394977,0.469818,0.444871,0.394977,0.494764,0.569605,0.544658,0.694339,0.794127,0.844021,0.943808,0.968755,0.893914,0.918861,0.893914,0.918861,0.893914,0.893914,0.943808,0.968755,1.118436,1.268117,1.243170,1.293064,1.318011,1.193277,1.218223,1.168330,1.143383,1.043595,1.043595,1.093489,1.118436,1.143383,1.143383,1.118436,1.168330,1.093489,0.993702,0.794127,0.669392,0.694339,0.594552,0.594552,0.644446,0.669392,0.644446,0.569605,0.419924,1.000000,123.000000
1.566788,-0.256517,-0.355074,-0.404353,-0.404353,-0.355074,-0.305796,-0.330435,-0.305796,-0.305796,-0.281156,-0.231878,-0.182599,-0.182599,-0.207239,-0.281156,-0.281156,-0.305796,-0.305796,-0.379713,-0.330435,-0.330435,-0.256517,-0.207239,-0.182599,-0.182599,-0.256517,-0.305796,-0.404353,-0.305796,-0.379713,-0.330435,-0.404353,-0.281156,-0.281156,-0.182599,-0.207239,-0.182599,-0.182599,-0.231878,-0.182599,-0.305796,-0.355074,-0.379713,-0.305796,-0.231878,-0.207239,-0.207239,-0.231878,-0.281156,-0.231878,-0.305796,-0.231878,-0.355074,-0.404353,-0.330435,-0.330435,-0.256517,-0.281156,-0.207239,-0.157960,-0.133321,-0.034764,-0.084042,-0.010124,-0.133321,-0.133321,-0.133321,-0.157960,-0.133321,-0.133321,-0.059403,0.014515,-0.010124,0.113072,0.113072,0.014515,-0.034764,-0.133321,-0.182599,-0.133321,-0.207239,-0.133321,-0.207239,-0.207239,-0.207239,-0.133321,-0.231878,-0.281156,-0.281156,-0.355074,-0.355074,-0.379713,-0.355074,-0.182599,-0.231878,-0.133321,-0.157960,-0.231878,-0.281156,-0.305796,-0.379713,-0.404353,-0.404353,-0.379713,-0.453631,-0.305796,-0.256517,-0.231878,-0.256517,-0.281156,-0.330435,-0.305796,-0.305796,-0.355074,-0.330435,-0.379713,-0.379713,-0.281156,-0.207239,-0.207239,-0.207239,-0.231878,-0.133321,-0.256517,-0.355074,-0.231878,-0.207239,-0.084042,0.039154,0.285547,0.729053,1.345034,1.911737,2.749472,3.340814,3.784320,4.055352,4.129270,4.030713,3.882877,3.439371,2.774111,1.911737,0.753692,-0.749302,-2.153739,-3.410341,-4.198797,-4.297354,-3.952405,-3.287145,-2.597246,-1.956625,-1.488480,-1.192809,-1.020334,-0.872498,-0.823220,-0.798581,-0.773941,-0.700024,-0.724663,-0.650745,-0.601467,-0.601467,-0.428992,-0.330435,-0.305796,-0.281156,-0.281156,-0.281156,-0.281156,-0.379713,-0.478270,-0.355074,-0.379713,-0.330435,-0.207239,-0.256517,-0.108682,-0.133321,-0.157960,-0.231878,-0.330435,-0.281156,-0.355074,-0.305796,-0.330435,-0.305796,-0.256517,-0.281156,-0.108682,-0.182599,-0.157960,-0.207239,-0.207239,-0.256517,-0.231878,-0.207239,-0.084042,-0.108682,-0.157960,-0.108682,-0.034764,-0.034764,-0.084042,-0.084042,-0.108682,-0.157960,-0.182599,-0.108682,-0.157960,-0.108682,-0.059403,0.063793,0.063793,0.014515,0.088433,-0.010124,-0.010124,0.039154,0.014515,0.039154,0.113072,0.162350,0.285547,0.285547,0.359464,0.359464,0.384104,0.408743,0.408743,0.359464,0.359464,0.359464,0.384104,0.556578,0.729053,0.753692,0.704414,0.802971,0.852249,0.778332,0.802971,0.729053,0.753692,0.802971,0.876889,0.876889,1.024724,1.024724,1.197199,1.172560,1.197199,1.123281,1.123281,1.049363,1.074003,1.074003,1.024724,1.049363,1.098642,1.147920,1.172560,1.098642,1.098642,0.950806,0.827610,0.704414,0.630496,0.556578,0.458021,0.408743,0.334825,1.000000,123.000000
1.949616,-0.491746,-0.491746,-0.465210,-0.332527,-0.359064,-0.279454,-0.332527,-0.332527,-0.359064,-0.491746,-0.518283,-0.465210,-0.438673,-0.491746,-0.491746,-0.279454,-0.332527,-0.359064,-0.359064,-0.332527,-0.438673,-0.385600,-0.518283,-0.518283,-0.544819,-0.465210,-0.491746,-0.332527,-0.412137,-0.385600,-0.359064,-0.385600,-0.332527,-0.465210,-0.491746,-0.412137,-0.465210,-0.385600,-0.279454,-0.252917,-0.173308,-0.199844,-0.252917,-0.252917,-0.438673,-0.412137,-0.412137,-0.465210,-0.491746,-0.438673,-0.359064,-0.359064,-0.332527,-0.305991,-0.305991,-0.385600,-0.412137,-0.332527,-0.412137,-0.359064,-0.305991,-0.279454,-0.199844,-0.067162,-0.014088,0.092058,0.065521,-0.014088,-0.014088,-0.173308,-0.120235,-0.173308,-0.067162,-0.120235,-0.067162,0.065521,0.118594,-0.014088,0.012448,-0.146771,-0.173308,-0.305991,-0.385600,-0.438673,-0.412137,-0.359064,-0.332527,-0.332527,-0.199844,-0.305991,-0.279454,-0.305991,-0.359064,-0.385600,-0.412137,-0.438673,-0.385600,-0.359064,-0.359064,-0.226381,-0.332527,-0.279454,-0.279454,-0.279454,-0.412137,-0.491746,-0.491746,-0.571356,-0.571356,-0.491746,-0.412137,-0.359064,-0.199844,-0.279454,-0.199844,-0.359064,-0.359064,-0.359064,-0.359064,-0.412137,-0.305991,-0.279454,-0.252917,-0.199844,-0.120235,-0.093698,-0.067162,0.065521,0.277814,0.675862,1.100447,2.002689,2.692639,3.409126,3.913321,4.099077,4.205223,4.337905,4.205223,3.939857,3.329517,2.427274,1.126983,-0.491746,-2.216622,-3.463840,-3.994571,-3.835351,-3.118865,-2.243159,-1.500135,-0.995941,-0.836721,-0.810185,-0.863258,-0.942868,-0.810185,-0.863258,-0.730575,-0.518283,-0.438673,-0.465210,-0.385600,-0.359064,-0.438673,-0.465210,-0.438673,-0.491746,-0.412137,-0.305991,-0.359064,-0.305991,-0.199844,-0.252917,-0.173308,-0.252917,-0.279454,-0.332527,-0.359064,-0.305991,-0.438673,-0.305991,-0.279454,-0.226381,-0.173308,-0.279454,-0.199844,-0.226381,-0.226381,-0.279454,-0.385600,-0.359064,-0.305991,-0.332527,-0.173308,-0.173308,-0.146771,-0.093698,-0.146771,-0.173308,-0.173308,-0.279454,-0.146771,-0.332527,-0.146771,-0.199844,-0.120235,-0.067162,0.038985,0.012448,-0.067162,-0.040625,-0.014088,0.012448,-0.173308,-0.067162,-0.093698,-0.067162,0.065521,0.145131,0.304350,0.357423,0.357423,0.304350,0.277814,0.330887,0.304350,0.516642,0.410496,0.516642,0.516642,0.596252,0.755471,0.755471,0.835081,0.782008,0.755471,0.702398,0.808545,0.755471,0.835081,0.861618,0.994300,1.073910,1.153520,1.206593,1.206593,1.233129,1.153520,1.180056,1.153520,1.153520,1.180056,1.180056,1.153520,1.259666,1.286202,1.233129,1.100447,1.073910,0.861618,0.728935,0.569716,0.490106,0.463569,0.410496,0.357423,0.304350,0.304350,0.251277,0.171667,0.145131,-0.014088,-0.093698,1.000000,123.000000
1.904288,-0.437248,-0.410640,-0.384031,-0.277598,-0.437248,-0.384031,-0.517073,-0.570290,-0.703331,-0.570290,-0.517073,-0.517073,-0.410640,-0.490465,-0.410640,-0.330814,-0.330814,-0.330814,-0.357423,-0.437248,-0.437248,-0.490465,-0.570290,-0.463856,-0.437248,-0.384031,-0.357423,-0.410640,-0.330814,-0.410640,-0.463856,-0.490465,-0.570290,-0.517073,-0.517073,-0.463856,-0.463856,-0.384031,-0.330814,-0.330814,-0.357423,-0.357423,-0.330814,-0.384031,-0.410640,-0.543681,-0.490465,-0.463856,-0.410640,-0.357423,-0.384031,-0.277598,-0.250989,-0.304206,-0.410640,-0.490465,-0.517073,-0.543681,-0.490465,-0.463856,-0.410640,-0.250989,-0.224381,-0.117948,-0.144556,-0.144556,-0.117948,-0.091339,-0.144556,-0.144556,-0.277598,-0.357423,-0.224381,-0.224381,-0.091339,-0.011514,0.015094,-0.011514,-0.064731,-0.064731,-0.197773,-0.330814,-0.304206,-0.330814,-0.277598,-0.277598,-0.357423,-0.277598,-0.304206,-0.304206,-0.357423,-0.357423,-0.330814,-0.437248,-0.277598,-0.357423,-0.410640,-0.304206,-0.330814,-0.250989,-0.250989,-0.304206,-0.277598,-0.384031,-0.357423,-0.437248,-0.570290,-0.570290,-0.463856,-0.384031,-0.463856,-0.384031,-0.277598,-0.357423,-0.250989,-0.357423,-0.384031,-0.357423,-0.357423,-0.330814,-0.384031,-0.250989,-0.197773,-0.038123,-0.091339,-0.144556,-0.144556,-0.144556,-0.064731,0.201353,0.520653,1.079428,1.930896,2.835580,3.500789,4.032956,4.352256,4.405473,4.245823,3.873306,3.234705,2.356630,1.185862,-0.330814,-1.741057,-3.044867,-3.789901,-3.949551,-3.630251,-2.885217,-2.273225,-1.661232,-1.315324,-1.129065,-0.942807,-0.862982,-0.862982,-0.729940,-0.596898,-0.543681,-0.517073,-0.463856,-0.543681,-0.490465,-0.490465,-0.490465,-0.384031,-0.357423,-0.357423,-0.304206,-0.064731,-0.144556,-0.091339,-0.091339,-0.171164,-0.224381,-0.224381,-0.224381,-0.197773,-0.171164,-0.144556,-0.091339,-0.011514,-0.091339,-0.064731,-0.144556,-0.197773,-0.330814,-0.224381,-0.197773,-0.117948,-0.250989,-0.197773,-0.171164,-0.091339,0.121528,0.015094,-0.011514,-0.038123,-0.117948,-0.011514,-0.117948,-0.064731,-0.091339,-0.091339,-0.064731,0.068311,0.094919,0.068311,-0.011514,-0.011514,-0.011514,-0.091339,-0.038123,-0.117948,-0.091339,-0.011514,0.121528,0.068311,0.227961,0.201353,0.254569,0.281178,0.334394,0.227961,0.201353,0.307786,0.334394,0.440828,0.467436,0.653695,0.760128,0.680303,0.760128,0.600478,0.653695,0.627086,0.680303,0.760128,0.706911,0.786737,0.733520,0.919778,0.972995,0.972995,1.106037,1.079428,1.079428,0.972995,1.052820,0.999603,1.106037,1.212470,1.318904,1.318904,1.398729,1.345512,1.372120,1.265687,1.292295,1.212470,1.132645,1.079428,1.026212,0.999603,0.946387,0.946387,0.946387,0.786737,0.706911,0.494045,0.440828,0.307786,0.254569,1.000000,123.000000
1.683914,-0.338589,-0.261785,-0.261785,-0.312988,-0.312988,-0.415393,-0.389791,-0.492197,-0.492197,-0.415393,-0.389791,-0.312988,-0.261785,-0.184981,-0.236184,-0.312988,-0.338589,-0.364190,-0.415393,-0.440994,-0.517798,-0.492197,-0.389791,-0.389791,-0.364190,-0.210582,-0.312988,-0.261785,-0.287386,-0.312988,-0.338589,-0.312988,-0.312988,-0.338589,-0.338589,-0.287386,-0.261785,-0.287386,-0.210582,-0.236184,-0.287386,-0.261785,-0.312988,-0.338589,-0.338589,-0.364190,-0.312988,-0.389791,-0.261785,-0.287386,-0.312988,-0.210582,-0.236184,-0.261785,-0.287386,-0.312988,-0.312988,-0.312988,-0.338589,-0.210582,-0.184981,-0.082576,-0.082576,-0.159380,-0.056975,-0.031373,-0.056975,-0.056975,-0.108177,-0.133778,-0.184981,-0.261785,-0.184981,-0.159380,-0.031373,0.071032,0.173437,0.071032,0.019829,0.019829,-0.108177,-0.005772,-0.082576,-0.159380,-0.108177,-0.159380,-0.082576,-0.108177,-0.133778,-0.159380,-0.159380,-0.261785,-0.338589,-0.338589,-0.364190,-0.312988,-0.236184,-0.184981,-0.133778,-0.108177,-0.287386,-0.236184,-0.338589,-0.415393,-0.466595,-0.466595,-0.338589,-0.236184,-0.159380,-0.184981,-0.108177,-0.133778,-0.184981,-0.184981,-0.261785,-0.236184,-0.261785,-0.287386,-0.312988,-0.133778,-0.184981,-0.133778,-0.056975,-0.082576,-0.184981,-0.210582,-0.133778,-0.159380,-0.082576,0.147836,0.506254,1.120685,1.863123,2.759169,3.604012,4.192842,4.500057,4.628064,4.474456,4.141639,3.655214,2.887175,1.735117,0.455052,-1.106628,-2.565902,-3.692359,-4.332392,-4.153183,-3.589954,-2.949922,-2.309889,-1.772262,-1.337040,-1.106628,-0.901817,-0.697007,-0.594602,-0.492197,-0.338589,-0.338589,-0.287386,-0.389791,-0.287386,-0.415393,-0.364190,-0.338589,-0.210582,-0.236184,-0.108177,-0.056975,-0.056975,-0.056975,-0.082576,-0.133778,-0.184981,-0.261785,-0.210582,-0.287386,-0.133778,-0.236184,-0.133778,-0.108177,-0.108177,-0.031373,-0.108177,-0.184981,-0.159380,-0.236184,-0.133778,-0.184981,-0.082576,-0.184981,-0.056975,0.045431,-0.056975,-0.056975,-0.031373,-0.108177,-0.133778,-0.287386,-0.236184,-0.261785,-0.133778,-0.108177,-0.082576,-0.031373,-0.056975,-0.082576,-0.082576,-0.082576,-0.082576,-0.133778,-0.082576,-0.031373,0.045431,0.096633,0.147836,0.224640,0.147836,0.122235,0.199038,0.147836,0.122235,0.096633,0.147836,0.199038,0.224640,0.327045,0.403849,0.480653,0.531855,0.531855,0.531855,0.531855,0.557457,0.506254,0.557457,0.608659,0.711065,0.839071,0.941476,0.890274,1.043881,0.941476,1.018280,0.992679,0.941476,0.890274,0.864672,0.864672,0.941476,0.992679,1.043881,0.967078,0.941476,0.941476,0.711065,0.608659,0.531855,0.403849,0.403849,0.429450,0.378248,0.352646,0.327045,0.301444,0.301444,0.224640,0.122235,-0.056975,-0.082576,-0.133778,-0.184981,1.000000,123.000000
2.113284,-0.449539,-0.370276,-0.370276,-0.291014,-0.317435,-0.264593,-0.291014,-0.343855,-0.343855,-0.396697,-0.423118,-0.475960,-0.475960,-0.502381,-0.449539,-0.449539,-0.370276,-0.370276,-0.317435,-0.370276,-0.423118,-0.449539,-0.475960,-0.555222,-0.502381,-0.449539,-0.317435,-0.291014,-0.211751,-0.291014,-0.264593,-0.370276,-0.343855,-0.475960,-0.449539,-0.475960,-0.475960,-0.396697,-0.423118,-0.396697,-0.343855,-0.291014,-0.317435,-0.343855,-0.449539,-0.423118,-0.555222,-0.528801,-0.423118,-0.449539,-0.343855,-0.238172,-0.185330,-0.132489,-0.211751,-0.211751,-0.291014,-0.291014,-0.317435,-0.238172,-0.185330,-0.185330,-0.079647,-0.079647,-0.132489,-0.079647,-0.185330,-0.291014,-0.317435,-0.291014,-0.264593,-0.211751,-0.158909,-0.026805,0.026037,-0.000384,0.078878,0.026037,0.026037,-0.000384,-0.158909,-0.317435,-0.264593,-0.317435,-0.343855,-0.343855,-0.370276,-0.291014,-0.238172,-0.158909,-0.317435,-0.238172,-0.343855,-0.317435,-0.423118,-0.528801,-0.528801,-0.502381,-0.449539,-0.449539,-0.370276,-0.396697,-0.343855,-0.317435,-0.370276,-0.396697,-0.343855,-0.449539,-0.317435,-0.396697,-0.343855,-0.343855,-0.238172,-0.291014,-0.291014,-0.238172,-0.317435,-0.423118,-0.396697,-0.449539,-0.449539,-0.370276,-0.317435,-0.185330,-0.185330,-0.106068,-0.000384,0.237403,0.501612,1.082871,1.743392,2.536018,3.222960,3.672115,3.962745,4.042007,4.226953,4.226953,4.015586,3.619273,2.932331,1.796234,0.369508,-1.268586,-2.880258,-3.804988,-3.989934,-3.540779,-2.748154,-1.849844,-1.189323,-0.951535,-0.898694,-0.872273,-0.898694,-0.977956,-0.793010,-0.660906,-0.581643,-0.475960,-0.396697,-0.317435,-0.343855,-0.370276,-0.423118,-0.423118,-0.449539,-0.449539,-0.423118,-0.343855,-0.291014,-0.264593,-0.185330,-0.211751,-0.317435,-0.291014,-0.370276,-0.423118,-0.475960,-0.475960,-0.475960,-0.396697,-0.370276,-0.264593,-0.158909,-0.238172,-0.238172,-0.238172,-0.343855,-0.317435,-0.343855,-0.396697,-0.370276,-0.264593,-0.291014,-0.185330,-0.132489,-0.106068,-0.158909,-0.211751,-0.211751,-0.264593,-0.317435,-0.343855,-0.370276,-0.185330,-0.211751,-0.158909,-0.000384,0.026037,-0.053226,0.052457,-0.000384,0.078878,-0.079647,-0.026805,-0.000384,-0.000384,0.184562,0.184562,0.263824,0.343087,0.316666,0.448770,0.395929,0.395929,0.369508,0.343087,0.369508,0.448770,0.528033,0.528033,0.660137,0.686558,0.739400,0.765821,0.792241,0.765821,0.792241,0.897925,0.897925,0.897925,1.056450,1.135713,1.214975,1.267817,1.241396,1.320659,1.214975,1.188554,1.214975,1.188554,1.188554,1.135713,1.267817,1.109292,1.082871,1.135713,1.030029,0.897925,0.897925,0.712979,0.580875,0.448770,0.475191,0.422349,0.422349,0.369508,0.343087,0.237403,0.184562,0.131720,-0.026805,-0.053226,1.000000,123.000000
2.437004,-0.528136,-0.473730,-0.392121,-0.446527,-0.392121,-0.446527,-0.500933,-0.473730,-0.636949,-0.664152,-0.609746,-0.555339,-0.500933,-0.473730,-0.392121,-0.364917,-0.337714,-0.364917,-0.364917,-0.419324,-0.500933,-0.500933,-0.582542,-0.500933,-0.446527,-0.500933,-0.392121,-0.337714,-0.283308,-0.364917,-0.392121,-0.419324,-0.446527,-0.500933,-0.528136,-0.528136,-0.473730,-0.337714,-0.446527,-0.310511,-0.228902,-0.283308,-0.310511,-0.310511,-0.364917,-0.500933,-0.446527,-0.419324,-0.555339,-0.364917,-0.283308,-0.283308,-0.256105,-0.256105,-0.283308,-0.337714,-0.446527,-0.446527,-0.446527,-0.528136,-0.473730,-0.419324,-0.337714,-0.283308,-0.120089,-0.092886,-0.065683,-0.120089,-0.201699,-0.283308,-0.392121,-0.310511,-0.337714,-0.283308,-0.120089,0.015926,0.070332,0.151942,0.151942,0.043129,-0.092886,-0.228902,-0.174496,-0.337714,-0.256105,-0.392121,-0.364917,-0.337714,-0.337714,-0.310511,-0.337714,-0.337714,-0.419324,-0.528136,-0.528136,-0.500933,-0.473730,-0.446527,-0.337714,-0.310511,-0.256105,-0.256105,-0.419324,-0.337714,-0.364917,-0.446527,-0.419324,-0.446527,-0.473730,-0.392121,-0.310511,-0.392121,-0.228902,-0.283308,-0.364917,-0.446527,-0.392121,-0.528136,-0.446527,-0.500933,-0.419324,-0.337714,-0.310511,-0.174496,-0.120089,-0.092886,-0.011277,0.097536,0.287957,0.587192,1.185660,1.920145,2.817848,3.525129,4.041988,4.314019,4.341222,4.232410,4.041988,3.525129,2.681832,1.484895,-0.065683,-1.643464,-3.166839,-3.982932,-4.064542,-3.438870,-2.595573,-1.806683,-1.208214,-0.936183,-0.908980,-0.854574,-0.881777,-0.772964,-0.636949,-0.500933,-0.392121,-0.364917,-0.283308,-0.310511,-0.256105,-0.392121,-0.419324,-0.392121,-0.473730,-0.419324,-0.446527,-0.337714,-0.228902,-0.228902,-0.065683,-0.065683,-0.120089,-0.174496,-0.256105,-0.283308,-0.310511,-0.283308,-0.283308,-0.228902,-0.092886,-0.011277,-0.011277,-0.120089,-0.011277,-0.120089,-0.256105,-0.228902,-0.364917,-0.310511,-0.283308,-0.283308,-0.201699,-0.120089,-0.092886,-0.038480,-0.011277,-0.038480,-0.120089,-0.120089,-0.174496,-0.174496,-0.120089,-0.011277,0.043129,0.043129,0.206348,0.043129,0.043129,0.151942,0.124739,0.015926,-0.011277,-0.011277,0.070332,0.070332,0.097536,0.151942,0.315161,0.260754,0.369567,0.369567,0.396770,0.451176,0.451176,0.505582,0.532785,0.614395,0.668801,0.750410,0.777614,0.832020,0.777614,0.804817,0.886426,0.804817,0.913629,0.968035,0.968035,1.022442,1.104051,1.185660,1.240067,1.267270,1.212863,1.267270,1.240067,1.185660,1.104051,1.158457,1.185660,1.212863,1.212863,1.240067,1.212863,1.076848,1.022442,0.968035,0.804817,0.696004,0.587192,0.559989,0.478379,0.451176,0.423973,0.423973,0.342364,0.179145,0.097536,-0.065683,-0.092886,-0.065683,1.000000,123.000000
2.193176,-0.281481,-0.256734,-0.306227,-0.355721,-0.405214,-0.454707,-0.504200,-0.429960,-0.429960,-0.355721,-0.281481,-0.330974,-0.306227,-0.330974,-0.454707,-0.405214,-0.479453,-0.553693,-0.479453,-0.454707,-0.454707,-0.355721,-0.281481,-0.330974,-0.281481,-0.330974,-0.380467,-0.454707,-0.405214,-0.454707,-0.479453,-0.429960,-0.429960,-0.330974,-0.380467,-0.306227,-0.330974,-0.330974,-0.380467,-0.528947,-0.504200,-0.578440,-0.504200,-0.454707,-0.380467,-0.429960,-0.380467,-0.355721,-0.281481,-0.355721,-0.355721,-0.355721,-0.454707,-0.454707,-0.479453,-0.355721,-0.380467,-0.355721,-0.256734,-0.281481,-0.157748,-0.182495,-0.231988,-0.207241,-0.207241,-0.281481,-0.256734,-0.231988,-0.256734,-0.281481,-0.256734,-0.231988,-0.207241,-0.182495,-0.108255,-0.083508,-0.157748,-0.133002,-0.108255,-0.157748,-0.207241,-0.182495,-0.231988,-0.207241,-0.231988,-0.256734,-0.306227,-0.281481,-0.380467,-0.504200,-0.479453,-0.553693,-0.479453,-0.380467,-0.405214,-0.355721,-0.355721,-0.306227,-0.380467,-0.355721,-0.330974,-0.405214,-0.405214,-0.380467,-0.380467,-0.380467,-0.281481,-0.231988,-0.207241,-0.157748,-0.231988,-0.281481,-0.330974,-0.380467,-0.380467,-0.405214,-0.330974,-0.281481,-0.231988,-0.207241,-0.256734,-0.281481,-0.281481,-0.281481,-0.355721,-0.330974,-0.182495,-0.108255,-0.009269,0.361930,0.733128,1.203313,1.920963,2.712853,3.455250,3.974928,4.197647,4.296634,4.271887,3.950182,3.430504,2.490134,1.475525,0.015478,-1.494063,-2.954110,-3.943973,-4.240931,-4.141945,-3.498534,-2.780884,-2.137473,-1.469316,-1.122864,-0.875398,-0.603186,-0.578440,-0.504200,-0.454707,-0.454707,-0.429960,-0.429960,-0.330974,-0.355721,-0.256734,-0.256734,-0.231988,-0.133002,-0.083508,-0.034015,-0.182495,-0.182495,-0.207241,-0.207241,-0.306227,-0.256734,-0.157748,-0.083508,-0.058762,0.015478,0.015478,-0.009269,-0.034015,-0.058762,-0.083508,-0.157748,-0.108255,-0.133002,-0.108255,-0.034015,-0.009269,0.064971,0.064971,0.064971,0.064971,0.064971,-0.009269,-0.083508,-0.157748,-0.157748,-0.133002,-0.108255,-0.034015,0.064971,0.064971,0.114464,0.040224,0.040224,0.040224,-0.034015,-0.058762,-0.083508,0.089718,0.089718,0.139211,0.238197,0.312437,0.337183,0.188704,0.287690,0.238197,0.262944,0.287690,0.238197,0.337183,0.510409,0.510409,0.485663,0.584649,0.559902,0.559902,0.559902,0.510409,0.510409,0.658889,0.658889,0.733128,0.782621,0.832114,0.955847,0.931101,1.030087,1.030087,0.980594,0.955847,0.931101,0.931101,0.980594,1.054834,1.005340,1.178566,1.178566,1.079580,1.104327,1.054834,0.955847,0.955847,0.881608,0.856861,0.782621,0.807368,0.708382,0.733128,0.708382,0.683635,0.609395,0.510409,0.386676,0.337183,0.139211,0.064971,0.089718,0.064971,0.015478,1.000000,123.000000
2.588071,-0.414441,-0.389627,-0.339999,-0.315185,-0.240742,-0.290371,-0.215928,-0.191114,-0.290371,-0.315185,-0.414441,-0.439256,-0.464070,-0.439256,-0.339999,-0.439256,-0.439256,-0.339999,-0.364813,-0.389627,-0.364813,-0.414441,-0.464070,-0.488884,-0.439256,-0.389627,-0.339999,-0.339999,-0.315185,-0.265557,-0.265557,-0.290371,-0.339999,-0.315185,-0.414441,-0.464070,-0.488884,-0.439256,-0.414441,-0.339999,-0.414441,-0.265557,-0.339999,-0.339999,-0.414441,-0.513698,-0.538512,-0.563326,-0.513698,-0.513698,-0.464070,-0.414441,-0.439256,-0.315185,-0.315185,-0.265557,-0.315185,-0.315185,-0.265557,-0.290371,-0.339999,-0.240742,-0.166300,-0.166300,-0.166300,-0.215928,-0.191114,-0.215928,-0.191114,-0.091857,-0.166300,-0.215928,-0.166300,-0.191114,-0.215928,-0.215928,-0.166300,-0.166300,-0.240742,-0.215928,-0.364813,-0.389627,-0.439256,-0.513698,-0.488884,-0.513698,-0.538512,-0.439256,-0.414441,-0.265557,-0.339999,-0.290371,-0.364813,-0.439256,-0.439256,-0.513698,-0.513698,-0.563326,-0.488884,-0.414441,-0.563326,-0.439256,-0.389627,-0.414441,-0.464070,-0.513698,-0.488884,-0.513698,-0.637769,-0.488884,-0.464070,-0.414441,-0.339999,-0.315185,-0.240742,-0.265557,-0.290371,-0.364813,-0.414441,-0.439256,-0.389627,-0.389627,-0.339999,-0.290371,-0.240742,-0.166300,-0.017415,0.131470,0.404426,0.851080,1.471434,2.166230,2.836212,3.406938,3.729522,3.903221,3.878407,3.928035,3.928035,3.580637,3.084354,2.215859,1.148850,-0.389627,-1.853662,-3.069556,-3.789166,-3.888423,-3.441768,-2.722158,-1.853662,-1.332565,-1.109238,-0.861096,-0.960353,-0.985167,-0.935539,-0.836282,-0.712211,-0.612955,-0.538512,-0.389627,-0.315185,-0.389627,-0.389627,-0.414441,-0.414441,-0.439256,-0.464070,-0.389627,-0.389627,-0.265557,-0.215928,-0.166300,-0.067043,-0.215928,-0.240742,-0.290371,-0.240742,-0.364813,-0.315185,-0.290371,-0.364813,-0.240742,-0.141486,-0.141486,-0.166300,-0.166300,-0.240742,-0.191114,-0.215928,-0.315185,-0.265557,-0.290371,-0.166300,-0.215928,-0.116672,-0.091857,-0.116672,-0.067043,-0.116672,-0.042229,-0.067043,-0.191114,-0.240742,-0.116672,-0.191114,-0.042229,-0.017415,-0.017415,0.057027,-0.042229,0.032213,-0.017415,-0.017415,-0.067043,-0.067043,0.032213,0.081842,0.156284,0.181098,0.255541,0.280355,0.280355,0.329983,0.429240,0.354797,0.429240,0.354797,0.454054,0.503682,0.578125,0.652567,0.702195,0.702195,0.751824,0.751824,0.826266,0.801452,0.801452,0.826266,0.925523,0.950337,1.074408,1.248107,1.248107,1.248107,1.322549,1.297735,1.223293,1.272921,1.198478,1.272921,1.248107,1.223293,1.272921,1.396992,1.347363,1.372177,1.198478,1.223293,1.049593,0.900709,0.776638,0.702195,0.652567,0.578125,0.578125,0.553310,0.478868,0.379611,0.305169,0.280355,0.131470,1.000000,123.000000
2.515490,-0.526262,-0.526262,-0.450847,-0.501124,-0.400570,-0.375431,-0.475985,-0.475985,-0.601677,-0.551400,-0.526262,-0.576539,-0.526262,-0.526262,-0.475985,-0.475985,-0.501124,-0.475985,-0.475985,-0.501124,-0.651954,-0.601677,-0.526262,-0.551400,-0.501124,-0.526262,-0.450847,-0.375431,-0.375431,-0.450847,-0.425708,-0.450847,-0.526262,-0.601677,-0.501124,-0.475985,-0.475985,-0.475985,-0.450847,-0.375431,-0.450847,-0.526262,-0.526262,-0.626816,-0.626816,-0.651954,-0.576539,-0.576539,-0.526262,-0.475985,-0.450847,-0.325154,-0.375431,-0.325154,-0.350293,-0.375431,-0.475985,-0.526262,-0.425708,-0.325154,-0.300016,-0.174324,-0.199462,-0.149185,-0.199462,-0.274878,-0.375431,-0.400570,-0.425708,-0.425708,-0.350293,-0.300016,-0.249739,-0.023493,-0.048631,0.001645,-0.149185,-0.174324,-0.199462,-0.300016,-0.425708,-0.425708,-0.526262,-0.501124,-0.501124,-0.375431,-0.375431,-0.300016,-0.325154,-0.425708,-0.425708,-0.450847,-0.601677,-0.601677,-0.576539,-0.526262,-0.551400,-0.551400,-0.475985,-0.400570,-0.450847,-0.450847,-0.425708,-0.425708,-0.475985,-0.526262,-0.450847,-0.450847,-0.400570,-0.375431,-0.325154,-0.300016,-0.375431,-0.274878,-0.325154,-0.425708,-0.450847,-0.425708,-0.501124,-0.400570,-0.325154,-0.375431,-0.274878,-0.249739,-0.249739,-0.149185,-0.098908,-0.048631,0.127338,0.428999,1.107737,1.836752,2.590906,3.319921,3.797551,3.973520,3.998659,4.023797,3.948382,3.696997,3.143951,2.314383,1.183152,-0.124047,-1.657492,-2.889276,-3.593153,-3.643430,-3.291491,-2.637892,-1.984292,-1.481523,-1.154723,-1.104446,-0.878200,-0.903339,-0.752508,-0.677093,-0.475985,-0.350293,-0.425708,-0.300016,-0.325154,-0.350293,-0.425708,-0.375431,-0.400570,-0.350293,-0.249739,-0.174324,-0.124047,-0.124047,-0.149185,-0.174324,-0.249739,-0.274878,-0.350293,-0.325154,-0.300016,-0.300016,-0.199462,-0.124047,-0.149185,-0.073770,-0.048631,-0.048631,-0.023493,-0.073770,-0.149185,-0.174324,-0.149185,-0.174324,-0.174324,-0.073770,-0.098908,0.026784,0.051922,-0.048631,-0.023493,-0.073770,-0.098908,-0.098908,-0.073770,-0.149185,0.001645,0.026784,0.051922,0.177615,0.102199,0.102199,0.077061,0.051922,0.051922,0.001645,0.077061,0.077061,0.253030,0.253030,0.278168,0.378722,0.353584,0.353584,0.353584,0.353584,0.328445,0.303307,0.353584,0.378722,0.454137,0.554691,0.604968,0.730660,0.730660,0.730660,0.755799,0.730660,0.730660,0.730660,0.856353,0.806076,0.982045,1.107737,1.132876,1.208291,1.183152,1.233429,1.258568,1.233429,1.208291,1.233429,1.258568,1.183152,1.359122,1.333983,1.283706,1.333983,1.359122,1.258568,1.158014,1.107737,1.007183,0.982045,0.881491,0.831214,0.856353,0.780937,0.780937,0.680384,0.655245,0.529553,0.479276,0.353584,0.278168,0.202753,1.000000,123.000000
1.820103,-0.523585,-0.709224,-0.662814,-0.662814,-0.616405,-0.639610,-0.569995,-0.569995,-0.523585,-0.523585,-0.593200,-0.639610,-0.593200,-0.686019,-0.639610,-0.662814,-0.593200,-0.500381,-0.477176,-0.453971,-0.430766,-0.546790,-0.569995,-0.569995,-0.616405,-0.616405,-0.569995,-0.593200,-0.546790,-0.523585,-0.500381,-0.500381,-0.546790,-0.523585,-0.523585,-0.616405,-0.686019,-0.732429,-0.662814,-0.639610,-0.639610,-0.523585,-0.384356,-0.384356,-0.430766,-0.361152,-0.430766,-0.500381,-0.593200,-0.523585,-0.523585,-0.500381,-0.500381,-0.430766,-0.430766,-0.384356,-0.384356,-0.384356,-0.407561,-0.430766,-0.477176,-0.523585,-0.477176,-0.500381,-0.407561,-0.268332,-0.198718,-0.152308,-0.268332,-0.291537,-0.291537,-0.291537,-0.291537,-0.268332,-0.245127,-0.198718,-0.152308,-0.129103,-0.105898,-0.175513,-0.198718,-0.291537,-0.314742,-0.361152,-0.453971,-0.500381,-0.430766,-0.453971,-0.477176,-0.477176,-0.430766,-0.384356,-0.361152,-0.407561,-0.477176,-0.500381,-0.523585,-0.569995,-0.477176,-0.477176,-0.384356,-0.384356,-0.430766,-0.268332,-0.361152,-0.268332,-0.361152,-0.407561,-0.477176,-0.477176,-0.500381,-0.477176,-0.407561,-0.384356,-0.361152,-0.337947,-0.314742,-0.314742,-0.337947,-0.361152,-0.384356,-0.500381,-0.407561,-0.384356,-0.268332,-0.221923,-0.152308,-0.013079,0.172560,0.427813,0.845500,1.356006,2.005741,2.701887,3.258803,3.746104,3.908538,3.954948,3.815719,3.467646,2.794706,1.912922,0.799090,-0.523585,-1.846261,-2.960093,-3.818672,-3.981106,-3.679443,-3.168937,-2.449587,-1.776646,-1.382164,-0.987682,-0.894863,-0.778839,-0.732429,-0.593200,-0.523585,-0.453971,-0.407561,-0.361152,-0.268332,-0.175513,-0.245127,-0.198718,-0.198718,-0.245127,-0.314742,-0.268332,-0.268332,-0.291537,-0.198718,-0.082694,-0.082694,0.056535,-0.013079,-0.036284,-0.013079,-0.036284,-0.059489,-0.059489,-0.036284,-0.059489,-0.036284,0.033331,0.079740,-0.059489,0.102945,0.033331,0.010126,0.056535,0.010126,-0.013079,-0.105898,-0.082694,-0.013079,0.079740,0.056535,0.149355,0.149355,0.149355,0.172560,0.033331,0.033331,0.033331,0.033331,0.056535,0.195764,0.218969,0.195764,0.311789,0.288584,0.242174,0.288584,0.288584,0.242174,0.265379,0.265379,0.242174,0.242174,0.358198,0.404608,0.451018,0.474222,0.520632,0.474222,0.404608,0.474222,0.474222,0.590247,0.520632,0.683066,0.683066,0.868705,0.845500,0.938319,0.984729,0.961524,1.007934,0.915114,1.007934,1.077548,1.054343,1.123958,1.263187,1.263187,1.263187,1.309596,1.239982,1.309596,1.309596,1.263187,1.263187,1.286392,1.263187,1.332801,1.286392,1.309596,1.332801,1.356006,1.309596,1.193572,1.170367,1.100753,0.984729,0.915114,0.891909,0.799090,0.868705,0.752680,0.729476,0.683066,0.567042,1.000000,123.000000
1.737821,-0.296576,-0.270494,-0.218330,-0.192248,-0.114002,-0.114002,-0.140084,-0.166166,-0.270494,-0.270494,-0.322658,-0.270494,-0.374822,-0.296576,-0.244412,-0.218330,-0.166166,-0.166166,-0.270494,-0.270494,-0.322658,-0.322658,-0.453068,-0.531314,-0.426986,-0.400904,-0.296576,-0.296576,-0.192248,-0.218330,-0.166166,-0.270494,-0.270494,-0.296576,-0.374822,-0.348740,-0.348740,-0.322658,-0.322658,-0.270494,-0.244412,-0.270494,-0.218330,-0.192248,-0.400904,-0.453068,-0.479150,-0.505232,-0.505232,-0.479150,-0.296576,-0.426986,-0.296576,-0.270494,-0.166166,-0.218330,-0.244412,-0.322658,-0.348740,-0.374822,-0.348740,-0.296576,-0.166166,-0.061838,0.016408,-0.035756,-0.009674,-0.035756,-0.218330,-0.244412,-0.322658,-0.244412,-0.244412,-0.192248,-0.114002,-0.009674,-0.009674,0.042490,-0.035756,-0.114002,-0.218330,-0.244412,-0.400904,-0.322658,-0.400904,-0.348740,-0.296576,-0.270494,-0.192248,-0.192248,-0.270494,-0.322658,-0.400904,-0.453068,-0.374822,-0.531314,-0.426986,-0.426986,-0.426986,-0.374822,-0.322658,-0.348740,-0.453068,-0.453068,-0.505232,-0.479150,-0.609561,-0.609561,-0.531314,-0.374822,-0.426986,-0.374822,-0.270494,-0.244412,-0.322658,-0.218330,-0.374822,-0.400904,-0.426986,-0.400904,-0.374822,-0.348740,-0.296576,-0.244412,-0.192248,-0.087920,-0.192248,-0.061838,0.042490,0.198982,0.511966,1.137935,2.102970,2.859348,3.563563,4.033039,4.189531,4.267777,4.163449,3.772219,3.407071,2.728938,1.607411,0.225064,-1.444185,-2.930860,-3.974141,-4.287126,-3.817649,-2.983024,-2.330974,-1.548513,-1.157283,-1.079037,-0.948627,-1.000791,-1.000791,-0.844299,-0.766053,-0.583479,-0.479150,-0.374822,-0.453068,-0.400904,-0.374822,-0.374822,-0.400904,-0.400904,-0.400904,-0.479150,-0.400904,-0.296576,-0.270494,-0.244412,-0.192248,-0.244412,-0.374822,-0.322658,-0.374822,-0.374822,-0.426986,-0.374822,-0.426986,-0.296576,-0.270494,-0.140084,-0.166166,-0.166166,-0.140084,-0.244412,-0.296576,-0.322658,-0.218330,-0.192248,-0.244412,-0.114002,-0.061838,-0.087920,-0.087920,-0.114002,-0.218330,-0.114002,-0.244412,-0.166166,-0.244412,-0.166166,-0.192248,-0.140084,-0.035756,-0.035756,-0.009674,-0.009674,-0.035756,-0.009674,-0.035756,-0.035756,0.016408,0.068572,0.094654,0.172900,0.355474,0.407638,0.381556,0.433720,0.329392,0.407638,0.355474,0.329392,0.459802,0.459802,0.564130,0.590212,0.746705,0.720623,0.824951,0.851033,0.851033,0.772787,0.746705,0.798869,0.981443,0.981443,1.007525,1.216181,1.294427,1.346591,1.294427,1.346591,1.268345,1.164017,1.190099,1.242263,1.268345,1.320509,1.294427,1.294427,1.294427,1.216181,1.085771,1.033607,0.798869,0.772787,0.564130,0.485884,0.407638,0.355474,0.381556,0.329392,0.303310,0.303310,0.094654,0.146818,0.042490,-0.087920,1.000000,123.000000
2.235250,-0.427625,-0.320034,-0.293136,-0.212443,-0.158648,-0.131750,-0.131750,-0.266239,-0.239341,-0.320034,-0.427625,-0.320034,-0.293136,-0.346932,-0.185545,-0.185545,-0.185545,-0.185545,-0.239341,-0.266239,-0.212443,-0.266239,-0.400727,-0.427625,-0.373830,-0.293136,-0.320034,-0.266239,-0.212443,-0.212443,-0.185545,-0.185545,-0.239341,-0.239341,-0.427625,-0.320034,-0.346932,-0.239341,-0.266239,-0.266239,-0.158648,-0.077955,-0.239341,-0.158648,-0.212443,-0.320034,-0.320034,-0.427625,-0.427625,-0.427625,-0.346932,-0.346932,-0.266239,-0.212443,-0.185545,-0.185545,-0.239341,-0.320034,-0.266239,-0.293136,-0.212443,-0.239341,-0.158648,-0.104852,0.002739,0.110330,0.083432,0.029636,-0.077955,-0.131750,-0.212443,-0.239341,-0.185545,-0.104852,0.029636,0.029636,0.164125,0.110330,0.029636,-0.024159,-0.104852,-0.158648,-0.266239,-0.320034,-0.293136,-0.266239,-0.266239,-0.266239,-0.212443,-0.158648,-0.293136,-0.212443,-0.266239,-0.320034,-0.320034,-0.454523,-0.400727,-0.427625,-0.320034,-0.373830,-0.266239,-0.293136,-0.266239,-0.346932,-0.400727,-0.454523,-0.427625,-0.481420,-0.400727,-0.535216,-0.346932,-0.293136,-0.293136,-0.185545,-0.266239,-0.266239,-0.346932,-0.373830,-0.346932,-0.427625,-0.508318,-0.373830,-0.373830,-0.293136,-0.212443,-0.158648,-0.104852,0.137227,0.325511,0.809671,1.428318,2.154557,3.015284,3.633932,3.902909,4.144989,4.198784,4.306375,4.118091,3.633932,2.961489,1.777989,0.244818,-1.395943,-2.956012,-3.978125,-4.139512,-3.709148,-2.821523,-1.960796,-1.395943,-0.992477,-0.911784,-0.938682,-1.100068,-1.046273,-1.046273,-0.777295,-0.589011,-0.508318,-0.454523,-0.400727,-0.346932,-0.266239,-0.427625,-0.346932,-0.454523,-0.508318,-0.481420,-0.481420,-0.400727,-0.400727,-0.293136,-0.212443,-0.293136,-0.373830,-0.320034,-0.400727,-0.400727,-0.481420,-0.508318,-0.454523,-0.400727,-0.373830,-0.320034,-0.239341,-0.266239,-0.239341,-0.320034,-0.266239,-0.320034,-0.373830,-0.373830,-0.373830,-0.266239,-0.212443,-0.239341,-0.212443,-0.212443,-0.185545,-0.212443,-0.185545,-0.266239,-0.320034,-0.320034,-0.293136,-0.293136,-0.212443,-0.212443,-0.077955,-0.185545,-0.158648,-0.158648,-0.158648,-0.158648,-0.131750,-0.131750,-0.104852,-0.024159,0.056534,0.083432,0.191023,0.164125,0.298614,0.191023,0.217921,0.191023,0.164125,0.244818,0.298614,0.379307,0.540693,0.540693,0.648284,0.675182,0.702080,0.702080,0.648284,0.648284,0.782773,0.782773,0.890364,0.836568,0.917261,1.132443,1.132443,1.213136,1.266932,1.186239,1.240034,1.213136,1.159341,1.186239,1.266932,1.266932,1.347625,1.347625,1.293830,1.266932,1.132443,0.944159,0.836568,0.675182,0.513796,0.379307,0.352409,0.379307,0.298614,0.298614,0.298614,0.244818,0.137227,0.083432,-0.024159,1.000000,123.000000
2.681135,-0.152248,-0.177546,-0.202844,-0.228143,-0.177546,-0.304037,-0.379931,-0.304037,-0.354633,-0.228143,-0.177546,-0.177546,-0.101652,-0.177546,-0.152248,-0.152248,-0.126950,-0.202844,-0.354633,-0.329335,-0.329335,-0.253441,-0.278739,-0.202844,-0.152248,-0.228143,-0.202844,-0.253441,-0.329335,-0.278739,-0.379931,-0.354633,-0.304037,-0.278739,-0.228143,-0.228143,-0.076354,-0.177546,-0.152248,-0.202844,-0.202844,-0.278739,-0.379931,-0.354633,-0.354633,-0.329335,-0.304037,-0.228143,-0.228143,-0.126950,-0.177546,-0.304037,-0.379931,-0.430527,-0.430527,-0.455825,-0.405229,-0.304037,-0.278739,-0.253441,-0.152248,-0.152248,-0.051056,-0.126950,-0.076354,-0.101652,-0.126950,-0.101652,-0.101652,-0.152248,-0.253441,-0.177546,-0.051056,0.024838,0.100732,0.126030,0.075434,0.050136,-0.152248,-0.152248,-0.202844,-0.253441,-0.177546,-0.177546,-0.202844,-0.152248,-0.228143,-0.126950,-0.202844,-0.304037,-0.304037,-0.304037,-0.304037,-0.278739,-0.253441,-0.253441,-0.152248,-0.126950,-0.304037,-0.329335,-0.329335,-0.531719,-0.531719,-0.506421,-0.455825,-0.405229,-0.278739,-0.253441,-0.228143,-0.228143,-0.253441,-0.253441,-0.278739,-0.304037,-0.304037,-0.354633,-0.304037,-0.228143,-0.202844,-0.152248,-0.177546,-0.152248,-0.177546,-0.177546,-0.177546,-0.228143,-0.126950,-0.025758,0.075434,0.252521,0.809078,1.441530,2.225769,3.136500,3.819547,4.274913,4.527893,4.426701,4.199018,3.819547,3.136500,2.276366,1.163251,-0.304037,-1.670132,-3.036227,-3.921660,-4.174640,-3.921660,-3.339804,-2.732651,-2.049603,-1.670132,-1.315959,-1.012382,-0.987084,-0.632912,-0.658210,-0.632912,-0.506421,-0.582315,-0.607613,-0.557017,-0.481123,-0.405229,-0.329335,-0.278739,-0.177546,-0.202844,-0.152248,-0.202844,-0.202844,-0.278739,-0.228143,-0.329335,-0.253441,-0.304037,-0.278739,-0.304037,-0.202844,-0.152248,-0.253441,-0.228143,-0.253441,-0.177546,-0.202844,-0.329335,-0.278739,-0.278739,-0.253441,-0.152248,-0.177546,-0.076354,-0.101652,-0.126950,-0.152248,-0.202844,-0.228143,-0.228143,-0.202844,-0.253441,-0.152248,-0.126950,-0.101652,-0.051056,-0.000460,-0.101652,-0.126950,-0.152248,-0.202844,-0.202844,-0.126950,-0.177546,-0.101652,-0.025758,0.100732,0.100732,0.227223,0.126030,0.227223,0.176626,0.151328,0.126030,0.100732,0.227223,0.176626,0.328415,0.328415,0.454905,0.505501,0.480203,0.480203,0.480203,0.454905,0.505501,0.530799,0.530799,0.631992,0.657290,0.758482,0.884972,0.859674,0.859674,0.935568,0.986164,1.011463,0.960866,0.935568,0.935568,1.112655,1.087357,1.137953,1.163251,1.163251,1.112655,1.062059,0.986164,0.910270,0.733184,0.707886,0.606694,0.556097,0.581395,0.556097,0.429607,0.429607,0.353713,0.227223,0.126030,0.075434,-0.051056,-0.101652,-0.101652,-0.101652,1.000000,123.000000
2.928141,-0.428388,-0.377913,-0.428388,-0.276965,-0.377913,-0.403151,-0.554573,-0.453625,-0.478862,-0.579810,-0.529336,-0.529336,-0.453625,-0.453625,-0.352676,-0.377913,-0.428388,-0.352676,-0.428388,-0.428388,-0.529336,-0.529336,-0.529336,-0.554573,-0.478862,-0.453625,-0.403151,-0.352676,-0.377913,-0.377913,-0.403151,-0.504099,-0.478862,-0.529336,-0.579810,-0.529336,-0.504099,-0.504099,-0.428388,-0.428388,-0.428388,-0.428388,-0.529336,-0.605047,-0.579810,-0.630284,-0.579810,-0.554573,-0.377913,-0.377913,-0.327439,-0.302202,-0.352676,-0.403151,-0.377913,-0.428388,-0.403151,-0.453625,-0.428388,-0.428388,-0.377913,-0.302202,-0.251728,-0.150780,-0.176017,-0.201254,-0.251728,-0.403151,-0.478862,-0.478862,-0.453625,-0.352676,-0.226491,-0.100306,-0.049832,0.051117,0.051117,0.051117,-0.075069,-0.125543,-0.176017,-0.377913,-0.352676,-0.504099,-0.352676,-0.352676,-0.302202,-0.352676,-0.302202,-0.352676,-0.428388,-0.529336,-0.605047,-0.529336,-0.529336,-0.428388,-0.478862,-0.428388,-0.327439,-0.327439,-0.327439,-0.377913,-0.327439,-0.453625,-0.529336,-0.504099,-0.554573,-0.428388,-0.428388,-0.377913,-0.276965,-0.226491,-0.352676,-0.302202,-0.403151,-0.478862,-0.504099,-0.605047,-0.529336,-0.504099,-0.478862,-0.302202,-0.302202,-0.176017,-0.201254,-0.201254,-0.201254,-0.100306,0.051117,0.404435,0.833465,1.641051,2.499111,3.306697,3.811438,4.089046,4.114283,4.013334,3.836675,3.483356,2.852430,1.969133,0.656806,-0.857418,-2.523063,-3.608257,-4.087761,-3.683968,-2.977330,-2.144507,-1.463107,-1.008840,-0.857418,-0.781706,-0.781706,-0.756469,-0.655521,-0.504099,-0.478862,-0.352676,-0.251728,-0.327439,-0.352676,-0.276965,-0.428388,-0.478862,-0.428388,-0.327439,-0.352676,-0.327439,-0.176017,-0.201254,-0.226491,-0.226491,-0.276965,-0.276965,-0.352676,-0.302202,-0.327439,-0.276965,-0.276965,-0.176017,-0.125543,-0.100306,-0.125543,-0.100306,-0.150780,-0.176017,-0.226491,-0.201254,-0.201254,-0.125543,-0.150780,-0.201254,-0.150780,-0.075069,-0.201254,-0.125543,-0.176017,-0.150780,-0.226491,-0.201254,-0.201254,-0.150780,-0.075069,0.051117,0.126828,0.051117,0.076354,0.076354,0.051117,0.101591,0.051117,-0.024595,0.025879,0.076354,0.253013,0.177302,0.227776,0.353961,0.379198,0.379198,0.303487,0.303487,0.278250,0.278250,0.328724,0.429672,0.530621,0.606332,0.732517,0.808228,0.833465,0.833465,0.833465,0.858702,0.833465,0.808228,0.934413,1.010125,1.111073,1.212021,1.262495,1.312969,1.338206,1.413918,1.287732,1.212021,1.237258,1.237258,1.262495,1.212021,1.262495,1.338206,1.338206,1.363443,1.262495,1.212021,1.212021,1.111073,1.035362,0.909176,0.858702,0.757754,0.732517,0.707280,0.707280,0.555858,0.555858,0.429672,0.328724,0.227776,0.202539,0.076354,1.000000,123.000000
2.690182,-0.536720,-0.562955,-0.536720,-0.562955,-0.484250,-0.484250,-0.510485,-0.510485,-0.510485,-0.536720,-0.615425,-0.615425,-0.562955,-0.536720,-0.458015,-0.431780,-0.405545,-0.405545,-0.431780,-0.458015,-0.562955,-0.589190,-0.615425,-0.536720,-0.589190,-0.458015,-0.484250,-0.405545,-0.510485,-0.458015,-0.484250,-0.484250,-0.536720,-0.589190,-0.667895,-0.536720,-0.536720,-0.510485,-0.510485,-0.405545,-0.379310,-0.405545,-0.353075,-0.405545,-0.431780,-0.484250,-0.484250,-0.431780,-0.536720,-0.379310,-0.405545,-0.353075,-0.300605,-0.379310,-0.405545,-0.458015,-0.431780,-0.510485,-0.562955,-0.484250,-0.431780,-0.326840,-0.195665,-0.143195,-0.090725,-0.064490,-0.090725,-0.195665,-0.379310,-0.353075,-0.379310,-0.221900,-0.221900,-0.143195,-0.038255,-0.012020,0.014215,-0.038255,-0.143195,-0.169430,-0.274370,-0.405545,-0.458015,-0.536720,-0.562955,-0.458015,-0.405545,-0.300605,-0.300605,-0.353075,-0.300605,-0.326840,-0.405545,-0.562955,-0.458015,-0.458015,-0.431780,-0.431780,-0.326840,-0.353075,-0.379310,-0.326840,-0.274370,-0.379310,-0.458015,-0.484250,-0.458015,-0.536720,-0.510485,-0.379310,-0.405545,-0.353075,-0.300605,-0.326840,-0.326840,-0.431780,-0.379310,-0.405545,-0.484250,-0.353075,-0.300605,-0.274370,-0.221900,-0.116960,-0.116960,-0.038255,0.014215,0.066685,0.302799,0.670089,1.247258,1.981838,2.847592,3.503466,4.054401,4.238045,4.395455,4.185575,4.001931,3.477231,2.401597,1.037379,-0.772835,-2.399403,-3.606212,-3.921031,-3.579977,-2.845398,-1.848469,-1.271299,-0.851540,-0.641660,-0.694130,-0.694130,-0.746600,-0.746600,-0.641660,-0.615425,-0.405545,-0.379310,-0.300605,-0.300605,-0.353075,-0.300605,-0.379310,-0.484250,-0.353075,-0.379310,-0.326840,-0.274370,-0.274370,-0.169430,-0.116960,-0.090725,-0.090725,-0.143195,-0.221900,-0.221900,-0.274370,-0.221900,-0.221900,-0.248135,-0.169430,-0.169430,-0.038255,-0.012020,-0.090725,-0.248135,-0.353075,-0.326840,-0.353075,-0.300605,-0.300605,-0.221900,-0.195665,-0.064490,-0.012020,-0.012020,-0.064490,-0.038255,-0.090725,-0.195665,-0.143195,-0.195665,-0.116960,-0.038255,0.040450,0.171624,0.171624,0.119154,0.197859,0.066685,0.014215,-0.012020,-0.116960,-0.064490,-0.012020,0.040450,0.197859,0.197859,0.355269,0.329034,0.302799,0.407739,0.381504,0.329034,0.302799,0.407739,0.407739,0.512679,0.617619,0.748794,0.748794,0.853734,0.879969,0.827499,0.853734,0.801264,0.827499,0.827499,0.853734,1.089849,1.089849,1.168553,1.247258,1.325963,1.299728,1.247258,1.325963,1.273493,1.273493,1.299728,1.299728,1.404668,1.404668,1.457138,1.404668,1.325963,1.273493,1.116083,1.037379,0.958674,0.853734,0.696324,0.670089,0.565149,0.512679,0.460209,0.433974,0.329034,0.355269,0.171624,0.040450,0.014215,1.000000,123.000000
2.562541,-0.110533,-0.085076,-0.034160,-0.135991,-0.186907,-0.186907,-0.314196,-0.314196,-0.390570,-0.390570,-0.390570,-0.314196,-0.288738,-0.314196,-0.135991,-0.110533,-0.110533,-0.212365,-0.161449,-0.212365,-0.314196,-0.314196,-0.339654,-0.212365,-0.237823,-0.212365,-0.034160,-0.110533,-0.186907,-0.161449,-0.212365,-0.314196,-0.365112,-0.339654,-0.339654,-0.365112,-0.263280,-0.288738,-0.263280,-0.186907,-0.212365,-0.237823,-0.288738,-0.365112,-0.339654,-0.339654,-0.390570,-0.339654,-0.314196,-0.237823,-0.186907,-0.161449,-0.161449,-0.186907,-0.212365,-0.314196,-0.314196,-0.365112,-0.466943,-0.416028,-0.314196,-0.237823,-0.186907,-0.161449,-0.059618,-0.110533,-0.085076,-0.110533,-0.135991,-0.186907,-0.161449,-0.212365,-0.110533,-0.034160,0.042214,0.118587,0.169503,0.093129,0.194961,0.042214,-0.008702,-0.085076,-0.135991,-0.212365,-0.263280,-0.186907,-0.237823,-0.237823,-0.212365,-0.314196,-0.339654,-0.416028,-0.466943,-0.339654,-0.416028,-0.339654,-0.339654,-0.288738,-0.237823,-0.161449,-0.263280,-0.314196,-0.390570,-0.441485,-0.492401,-0.466943,-0.365112,-0.390570,-0.365112,-0.365112,-0.212365,-0.288738,-0.416028,-0.365112,-0.416028,-0.543317,-0.543317,-0.466943,-0.466943,-0.339654,-0.314196,-0.186907,-0.186907,-0.135991,-0.161449,-0.212365,-0.085076,-0.186907,0.016756,0.245877,0.627744,1.213275,2.104300,2.893493,3.657228,4.115470,4.395506,4.395506,4.217301,3.937265,3.300818,2.460709,1.213275,-0.288738,-1.841667,-3.241849,-4.107416,-4.311078,-3.929211,-3.140017,-2.452655,-1.765294,-1.357968,-1.077932,-0.874269,-0.823353,-0.619690,-0.594232,-0.492401,-0.517859,-0.466943,-0.466943,-0.517859,-0.568775,-0.517859,-0.568775,-0.543317,-0.492401,-0.339654,-0.339654,-0.263280,-0.186907,-0.212365,-0.237823,-0.237823,-0.339654,-0.339654,-0.365112,-0.288738,-0.288738,-0.212365,-0.186907,-0.186907,-0.110533,-0.110533,-0.237823,-0.161449,-0.263280,-0.339654,-0.390570,-0.390570,-0.288738,-0.237823,-0.237823,-0.085076,-0.135991,-0.186907,-0.110533,-0.085076,-0.186907,-0.135991,-0.237823,-0.161449,-0.059618,-0.085076,-0.034160,0.016756,0.042214,0.093129,-0.008702,-0.008702,0.016756,-0.085076,-0.135991,-0.110533,-0.008702,0.042214,0.144045,0.296792,0.296792,0.245877,0.271334,0.347708,0.322250,0.322250,0.373166,0.500455,0.551371,0.602286,0.704118,0.678660,0.755034,0.729576,0.729576,0.729576,0.831407,0.704118,0.780491,0.780491,0.856865,0.984154,0.984154,1.060528,1.060528,1.162359,1.111443,1.085986,1.060528,1.009612,1.009612,1.009612,1.085986,1.085986,1.060528,1.111443,1.009612,0.882323,0.882323,0.627744,0.576829,0.449539,0.373166,0.322250,0.296792,0.245877,0.144045,0.194961,0.118587,0.093129,0.016756,-0.059618,-0.135991,-0.186907,-0.237823,1.000000,123.000000
