2.557554,-0.361476,-0.390378,-0.404828,-0.404828,-0.419279,-0.419279,-0.419279,-0.375927,-0.332575,-0.318124,-0.332575,-0.303674,-0.318124,-0.361476,-0.347026,-0.347026,-0.361476,-0.361476,-0.361476,-0.332575,-0.274773,-0.231421,-0.303674,-0.303674,-0.303674,-0.318124,-0.375927,-0.361476,-0.361476,-0.390378,-0.347026,-0.274773,-0.303674,-0.245871,-0.245871,-0.289223,-0.347026,-0.318124,-0.390378,-0.419279,-0.404828,-0.375927,-0.361476,-0.289223,-0.289223,-0.245871,-0.216970,-0.173618,-0.216970,-0.216970,-0.216970,-0.173618,-0.173618,-0.086914,-0.043562,-0.000210,-0.029111,-0.000210,-0.029111,0.043142,0.115395,0.173198,0.216550,0.288803,0.288803,0.332155,0.303253,0.303253,0.303253,0.231000,0.187648,0.187648,0.158747,0.144296,0.129846,0.072043,0.072043,0.014240,-0.072463,-0.115815,-0.188069,-0.202519,-0.289223,-0.289223,-0.318124,-0.390378,-0.419279,-0.491532,-0.505983,-0.505983,-0.462631,-0.433730,-0.448180,-0.404828,-0.404828,-0.390378,-0.433730,-0.448180,-0.534884,-0.520434,-0.534884,-0.534884,-0.505983,-0.462631,-0.433730,-0.448180,-0.477082,-0.390378,-0.390378,-0.462631,-0.390378,-0.477082,-0.433730,-0.462631,-0.390378,-0.347026,-0.347026,-0.260322,-0.289223,-0.274773,-0.274773,-0.303674,-0.303674,-0.318124,-0.318124,-0.303674,-0.260322,-0.101365,0.187648,0.635618,1.314799,2.095134,2.846567,3.626902,4.436139,5.144220,5.736697,5.823401,5.360980,4.378336,3.005525,1.358151,-0.347026,-1.647584,-2.442370,-2.659129,-2.471271,-2.023301,-1.575331,-1.242966,-1.011756,-0.881700,-0.751644,-0.621588,-0.534884,-0.433730,-0.289223,-0.289223,-0.361476,-0.404828,-0.404828,-0.433730,-0.433730,-0.390378,-0.361476,-0.289223,-0.289223,-0.289223,-0.303674,-0.318124,-0.347026,-0.419279,-0.390378,-0.390378,-0.375927,-0.347026,-0.347026,-0.347026,-0.318124,-0.318124,-0.347026,-0.390378,-0.404828,-0.419279,-0.419279,-0.375927,-0.332575,-0.274773,-0.303674,-0.289223,-0.318124,-0.289223,-0.289223,-0.347026,-0.347026,-0.390378,-0.404828,-0.375927,-0.375927,-0.332575,-0.332575,-0.332575,-0.289223,-0.231421,-0.289223,-0.318124,-0.318124,-0.289223,-0.289223,-0.289223,-0.260322,-0.216970,-0.188069,-0.159167,-0.159167,-0.144717,-0.159167,-0.130266,-0.144717,-0.130266,-0.101365,-0.086914,-0.000210,-0.029111,0.014240,0.057592,0.043142,0.144296,0.187648,0.187648,0.158747,0.202099,0.129846,0.231000,0.259901,0.375507,0.462211,0.505562,0.548914,0.606717,0.606717,0.592266,0.606717,0.592266,0.664520,0.707872,0.736773,0.794575,0.852378,0.895730,0.910181,0.910181,0.866829,0.837927,0.809026,0.722322,0.693421,0.678970,0.678970,0.678970,0.621168,0.592266,0.505562,0.520013,0.433309,0.346605,0.259901,0.187648,0.173198,0.115395,0.100944,0.072043,0.043142,0.014240,1.000000,123.000000
2.209290,-0.471316,-0.511728,-0.484787,-0.498257,-0.471316,-0.444376,-0.390494,-0.403965,-0.377024,-0.430905,-0.444376,-0.471316,-0.498257,-0.484787,-0.484787,-0.457846,-0.417435,-0.350083,-0.350083,-0.363553,-0.390494,-0.430905,-0.430905,-0.430905,-0.444376,-0.471316,-0.457846,-0.444376,-0.377024,-0.363553,-0.350083,-0.363553,-0.390494,-0.390494,-0.390494,-0.430905,-0.403965,-0.444376,-0.444376,-0.403965,-0.377024,-0.363553,-0.323142,-0.323142,-0.336613,-0.323142,-0.350083,-0.350083,-0.377024,-0.403965,-0.363553,-0.377024,-0.296201,-0.161498,-0.094146,-0.080675,-0.080675,-0.107616,-0.148027,-0.094146,-0.053735,-0.053735,0.027088,0.107910,0.202203,0.215673,0.269555,0.215673,0.188732,0.134851,0.067499,0.040558,-0.026794,0.000147,0.013617,-0.080675,0.000147,-0.040264,-0.040264,-0.080675,-0.201909,-0.309672,-0.390494,-0.430905,-0.484787,-0.498257,-0.525198,-0.538668,-0.552139,-0.511728,-0.484787,-0.498257,-0.484787,-0.511728,-0.498257,-0.579079,-0.565609,-0.579079,-0.592550,-0.592550,-0.579079,-0.552139,-0.484787,-0.525198,-0.471316,-0.498257,-0.552139,-0.525198,-0.538668,-0.552139,-0.538668,-0.511728,-0.484787,-0.444376,-0.390494,-0.403965,-0.403965,-0.390494,-0.417435,-0.430905,-0.403965,-0.403965,-0.363553,-0.296201,-0.255790,-0.215379,-0.134557,0.067499,0.350377,0.862251,1.428007,2.114997,2.855868,3.610209,4.391492,5.172774,5.698119,5.765471,5.361359,4.431903,3.071394,1.414537,-0.134557,-1.400773,-2.195525,-2.343700,-2.060822,-1.508536,-0.956250,-0.632961,-0.471316,-0.457846,-0.525198,-0.565609,-0.565609,-0.565609,-0.511728,-0.471316,-0.430905,-0.377024,-0.377024,-0.390494,-0.417435,-0.377024,-0.377024,-0.417435,-0.403965,-0.390494,-0.430905,-0.417435,-0.363553,-0.377024,-0.363553,-0.323142,-0.309672,-0.309672,-0.336613,-0.377024,-0.390494,-0.417435,-0.430905,-0.417435,-0.417435,-0.390494,-0.336613,-0.377024,-0.282731,-0.309672,-0.309672,-0.309672,-0.363553,-0.377024,-0.336613,-0.417435,-0.377024,-0.363553,-0.350083,-0.282731,-0.282731,-0.309672,-0.282731,-0.336613,-0.323142,-0.296201,-0.296201,-0.296201,-0.269261,-0.228850,-0.215379,-0.174968,-0.148027,-0.134557,-0.134557,-0.174968,-0.148027,-0.134557,-0.134557,-0.121086,-0.094146,-0.040264,0.013617,0.080969,0.107910,0.134851,0.134851,0.148321,0.148321,0.188732,0.229143,0.229143,0.269555,0.363847,0.444670,0.498551,0.552433,0.606314,0.619785,0.633255,0.660196,0.687136,0.687136,0.727548,0.767959,0.835311,0.929603,0.956544,1.050837,0.996955,1.037366,0.983485,0.996955,0.983485,0.929603,0.902663,0.875722,0.902663,0.902663,0.889192,0.821840,0.741018,0.646725,0.565903,0.512021,0.417729,0.363847,0.296495,0.256084,0.256084,0.215673,0.215673,0.161792,0.121380,0.094440,0.054028,1.000000,123.000000
2.249086,-0.408464,-0.408464,-0.436887,-0.436887,-0.451099,-0.465310,-0.451099,-0.394253,-0.323195,-0.351618,-0.380041,-0.380041,-0.394253,-0.408464,-0.451099,-0.422676,-0.436887,-0.465310,-0.380041,-0.394253,-0.351618,-0.351618,-0.394253,-0.351618,-0.394253,-0.394253,-0.408464,-0.422676,-0.422676,-0.394253,-0.380041,-0.337407,-0.337407,-0.294772,-0.308984,-0.337407,-0.351618,-0.380041,-0.422676,-0.422676,-0.422676,-0.394253,-0.422676,-0.323195,-0.294772,-0.252138,-0.237926,-0.280561,-0.294772,-0.308984,-0.294772,-0.266349,-0.181080,-0.124234,-0.081600,-0.053177,-0.010542,0.003669,0.003669,0.017881,0.060515,0.103150,0.174207,0.231053,0.245265,0.273688,0.302111,0.287899,0.273688,0.273688,0.202630,0.159996,0.117361,0.117361,0.074727,0.103150,0.074727,0.060515,0.017881,-0.053177,-0.138446,-0.209503,-0.223715,-0.294772,-0.365830,-0.394253,-0.422676,-0.465310,-0.507945,-0.507945,-0.507945,-0.507945,-0.451099,-0.408464,-0.451099,-0.451099,-0.479522,-0.522156,-0.536368,-0.564791,-0.579002,-0.522156,-0.550579,-0.493733,-0.451099,-0.422676,-0.436887,-0.465310,-0.451099,-0.507945,-0.522156,-0.507945,-0.493733,-0.550579,-0.465310,-0.451099,-0.436887,-0.408464,-0.380041,-0.365830,-0.394253,-0.365830,-0.337407,-0.351618,-0.351618,-0.323195,-0.237926,-0.138446,-0.038965,0.245265,0.700033,1.339550,2.178028,3.002295,3.897620,4.792944,5.603000,5.986710,5.830384,5.062963,3.755505,2.035913,0.231053,-1.218520,-2.170690,-2.454920,-2.213325,-1.730134,-1.190097,-0.863232,-0.692694,-0.621637,-0.621637,-0.621637,-0.550579,-0.493733,-0.394253,-0.380041,-0.422676,-0.436887,-0.479522,-0.493733,-0.465310,-0.408464,-0.380041,-0.408464,-0.365830,-0.394253,-0.408464,-0.394253,-0.408464,-0.451099,-0.436887,-0.408464,-0.436887,-0.408464,-0.394253,-0.365830,-0.380041,-0.337407,-0.380041,-0.422676,-0.394253,-0.436887,-0.436887,-0.436887,-0.408464,-0.365830,-0.365830,-0.337407,-0.337407,-0.337407,-0.380041,-0.422676,-0.451099,-0.479522,-0.451099,-0.365830,-0.365830,-0.337407,-0.266349,-0.237926,-0.252138,-0.266349,-0.266349,-0.294772,-0.280561,-0.308984,-0.294772,-0.252138,-0.266349,-0.209503,-0.181080,-0.152657,-0.124234,-0.124234,-0.138446,-0.081600,-0.053177,-0.081600,-0.053177,-0.024754,0.017881,0.060515,0.103150,0.174207,0.202630,0.259476,0.287899,0.302111,0.302111,0.330534,0.344745,0.415803,0.430014,0.486860,0.557918,0.614764,0.671610,0.742667,0.700033,0.742667,0.771090,0.742667,0.771090,0.842148,0.884782,0.941628,0.955840,0.955840,1.041109,1.055320,1.041109,0.970051,0.927417,0.913205,0.856359,0.842148,0.728456,0.700033,0.671610,0.700033,0.628975,0.572129,0.430014,0.344745,0.259476,0.202630,0.159996,0.117361,0.060515,-0.024754,-0.038965,-0.024754,1.000000,123.000000
2.268078,-0.376232,-0.320268,-0.320268,-0.320268,-0.334259,-0.376232,-0.390223,-0.404214,-0.404214,-0.418206,-0.404214,-0.404214,-0.348250,-0.334259,-0.306277,-0.264304,-0.264304,-0.292286,-0.334259,-0.390223,-0.460179,-0.418206,-0.404214,-0.418206,-0.362241,-0.306277,-0.264304,-0.278295,-0.236322,-0.306277,-0.348250,-0.390223,-0.362241,-0.362241,-0.404214,-0.362241,-0.320268,-0.278295,-0.292286,-0.306277,-0.306277,-0.334259,-0.320268,-0.334259,-0.334259,-0.334259,-0.292286,-0.306277,-0.306277,-0.194349,-0.152375,-0.096411,-0.040447,0.001526,-0.040447,-0.054438,-0.040447,-0.040447,-0.026456,0.029508,0.085473,0.225383,0.323321,0.365294,0.379285,0.393276,0.337312,0.281348,0.197401,0.141437,0.057491,0.113455,0.141437,0.197401,0.211392,0.183410,0.113455,0.029508,-0.124393,-0.236322,-0.320268,-0.362241,-0.362241,-0.376232,-0.348250,-0.376232,-0.376232,-0.390223,-0.418206,-0.446188,-0.446188,-0.488161,-0.516143,-0.558116,-0.516143,-0.544125,-0.502152,-0.488161,-0.404214,-0.404214,-0.404214,-0.446188,-0.474170,-0.516143,-0.502152,-0.516143,-0.544125,-0.488161,-0.460179,-0.404214,-0.390223,-0.348250,-0.404214,-0.376232,-0.390223,-0.404214,-0.376232,-0.432197,-0.390223,-0.334259,-0.306277,-0.236322,-0.222331,-0.166366,-0.138384,-0.138384,-0.166366,-0.180357,-0.026456,0.351303,0.924936,1.736418,2.575881,3.457318,4.366737,5.234183,5.863781,5.933736,5.430058,4.352746,2.771756,0.980901,-0.726009,-1.985204,-2.628793,-2.712739,-2.390945,-1.901258,-1.439553,-1.145741,-0.991839,-0.879911,-0.809955,-0.698027,-0.614080,-0.502152,-0.404214,-0.334259,-0.334259,-0.362241,-0.348250,-0.362241,-0.376232,-0.362241,-0.390223,-0.404214,-0.404214,-0.446188,-0.432197,-0.362241,-0.348250,-0.348250,-0.264304,-0.278295,-0.348250,-0.348250,-0.376232,-0.390223,-0.390223,-0.376232,-0.334259,-0.306277,-0.306277,-0.292286,-0.264304,-0.264304,-0.348250,-0.362241,-0.404214,-0.418206,-0.404214,-0.376232,-0.334259,-0.348250,-0.278295,-0.250313,-0.250313,-0.292286,-0.320268,-0.334259,-0.418206,-0.404214,-0.362241,-0.362241,-0.292286,-0.278295,-0.250313,-0.180357,-0.166366,-0.180357,-0.166366,-0.208340,-0.208340,-0.208340,-0.180357,-0.152375,-0.110402,-0.068429,0.071482,0.113455,0.127446,0.099464,0.099464,0.099464,0.113455,0.141437,0.155428,0.183410,0.295339,0.351303,0.449240,0.463231,0.505204,0.491213,0.519196,0.505204,0.561169,0.575160,0.617133,0.673097,0.729061,0.785026,0.882963,0.924936,0.924936,0.952918,0.952918,0.896954,0.882963,0.854981,0.868972,0.826999,0.854981,0.896954,0.868972,0.813008,0.701079,0.673097,0.561169,0.477222,0.449240,0.379285,0.281348,0.295339,0.253365,0.169419,0.169419,0.141437,0.099464,0.057491,0.001526,-0.068429,-0.138384,-0.152375,1.000000,123.000000
2.027275,-0.296997,-0.335951,-0.374905,-0.374905,-0.335951,-0.284012,-0.296997,-0.232073,-0.258043,-0.232073,-0.258043,-0.271027,-0.271027,-0.322966,-0.322966,-0.348936,-0.296997,-0.284012,-0.258043,-0.284012,-0.245058,-0.258043,-0.258043,-0.245058,-0.296997,-0.309982,-0.322966,-0.309982,-0.335951,-0.309982,-0.296997,-0.245058,-0.232073,-0.245058,-0.271027,-0.296997,-0.296997,-0.296997,-0.322966,-0.309982,-0.309982,-0.271027,-0.245058,-0.206104,-0.141180,-0.102225,-0.089241,-0.115210,-0.089241,-0.089241,-0.089241,-0.050286,-0.063271,-0.037302,-0.011332,0.079561,0.170455,0.196424,0.287317,0.274333,0.235378,0.248363,0.222394,0.105531,0.157470,0.144485,0.183439,0.170455,0.183439,0.118515,0.118515,0.053592,0.040607,-0.050286,-0.128195,-0.258043,-0.322966,-0.335951,-0.387890,-0.335951,-0.348936,-0.361921,-0.387890,-0.426845,-0.452814,-0.504753,-0.504753,-0.504753,-0.491768,-0.478784,-0.504753,-0.491768,-0.439829,-0.478784,-0.504753,-0.543707,-0.582662,-0.569677,-0.595646,-0.582662,-0.530723,-0.543707,-0.478784,-0.452814,-0.439829,-0.426845,-0.452814,-0.452814,-0.465799,-0.491768,-0.478784,-0.465799,-0.413860,-0.465799,-0.374905,-0.374905,-0.361921,-0.400875,-0.361921,-0.374905,-0.361921,-0.413860,-0.374905,-0.322966,-0.258043,-0.154165,-0.076256,0.118515,0.443134,0.975510,1.598778,2.235032,2.910239,3.598431,4.351548,5.013770,5.572115,5.663009,5.286450,4.481395,3.247843,1.715641,0.066576,-1.348763,-2.270681,-2.543361,-2.387543,-1.920092,-1.426671,-1.011159,-0.790418,-0.725494,-0.751464,-0.764448,-0.725494,-0.699525,-0.582662,-0.530723,-0.439829,-0.452814,-0.426845,-0.426845,-0.439829,-0.400875,-0.413860,-0.400875,-0.413860,-0.439829,-0.465799,-0.452814,-0.491768,-0.478784,-0.426845,-0.413860,-0.374905,-0.374905,-0.374905,-0.400875,-0.413860,-0.413860,-0.426845,-0.439829,-0.465799,-0.439829,-0.452814,-0.426845,-0.426845,-0.400875,-0.335951,-0.374905,-0.348936,-0.374905,-0.400875,-0.413860,-0.439829,-0.478784,-0.439829,-0.387890,-0.374905,-0.348936,-0.322966,-0.322966,-0.322966,-0.322966,-0.348936,-0.348936,-0.361921,-0.361921,-0.322966,-0.309982,-0.271027,-0.271027,-0.245058,-0.193119,-0.193119,-0.193119,-0.245058,-0.206104,-0.193119,-0.180134,-0.154165,-0.102225,-0.037302,0.027622,0.014637,0.066576,0.079561,0.131500,0.092546,0.144485,0.170455,0.209409,0.274333,0.352241,0.417165,0.469104,0.534028,0.572982,0.611936,0.650891,0.663875,0.663875,0.715814,0.754769,0.780738,0.845662,0.910586,0.962525,0.988494,1.014464,1.014464,0.988494,0.949540,0.949540,0.884616,0.871632,0.832677,0.832677,0.819693,0.754769,0.676860,0.611936,0.534028,0.469104,0.352241,0.300302,0.222394,0.144485,0.079561,0.066576,0.027622,0.014637,-0.011332,-0.050286,1.000000,123.000000
2.264359,-0.378251,-0.391734,-0.351286,-0.364768,-0.337803,-0.310838,-0.270389,-0.283872,-0.256907,-0.364768,-0.418699,-0.405217,-0.405217,-0.391734,-0.405217,-0.324320,-0.351286,-0.351286,-0.297355,-0.283872,-0.270389,-0.283872,-0.283872,-0.310838,-0.364768,-0.391734,-0.391734,-0.378251,-0.324320,-0.324320,-0.337803,-0.283872,-0.270389,-0.297355,-0.297355,-0.324320,-0.378251,-0.405217,-0.351286,-0.378251,-0.324320,-0.283872,-0.283872,-0.243424,-0.283872,-0.270389,-0.283872,-0.297355,-0.297355,-0.297355,-0.297355,-0.256907,-0.176011,-0.108597,-0.054666,-0.000735,0.012747,0.066678,0.053195,-0.000735,-0.000735,0.026230,0.066678,0.147574,0.214988,0.295884,0.363298,0.349815,0.322849,0.282401,0.268919,0.201505,0.134092,0.093644,0.039713,0.066678,0.066678,0.120609,0.053195,0.080161,0.039713,-0.041184,-0.108597,-0.202976,-0.324320,-0.418699,-0.459147,-0.472630,-0.459147,-0.459147,-0.445665,-0.432182,-0.418699,-0.445665,-0.486113,-0.486113,-0.486113,-0.540044,-0.540044,-0.513078,-0.553526,-0.513078,-0.472630,-0.459147,-0.472630,-0.472630,-0.499595,-0.499595,-0.513078,-0.513078,-0.513078,-0.553526,-0.513078,-0.486113,-0.445665,-0.432182,-0.459147,-0.418699,-0.432182,-0.418699,-0.432182,-0.445665,-0.405217,-0.418699,-0.364768,-0.283872,-0.229941,-0.176011,-0.081632,0.188022,0.552055,1.199225,1.967739,2.803667,3.693525,4.610349,5.459760,5.931654,5.931654,5.271002,4.003628,2.318290,0.592504,-1.025421,-2.077072,-2.454588,-2.238864,-1.766970,-1.227661,-0.863628,-0.607457,-0.553526,-0.620940,-0.634423,-0.647905,-0.567009,-0.526561,-0.472630,-0.405217,-0.432182,-0.432182,-0.405217,-0.418699,-0.418699,-0.391734,-0.405217,-0.418699,-0.459147,-0.472630,-0.472630,-0.513078,-0.459147,-0.445665,-0.445665,-0.391734,-0.405217,-0.378251,-0.378251,-0.418699,-0.459147,-0.486113,-0.472630,-0.499595,-0.499595,-0.499595,-0.486113,-0.445665,-0.391734,-0.351286,-0.351286,-0.391734,-0.405217,-0.432182,-0.432182,-0.445665,-0.445665,-0.418699,-0.378251,-0.391734,-0.378251,-0.364768,-0.378251,-0.364768,-0.418699,-0.445665,-0.418699,-0.432182,-0.364768,-0.324320,-0.270389,-0.256907,-0.229941,-0.176011,-0.243424,-0.216459,-0.189493,-0.216459,-0.229941,-0.243424,-0.162528,-0.108597,-0.081632,-0.014218,0.053195,0.080161,0.107126,0.120609,0.134092,0.161057,0.161057,0.228471,0.255436,0.349815,0.430711,0.484642,0.552055,0.565538,0.565538,0.619469,0.659917,0.700365,0.727331,0.754296,0.794744,0.862158,0.916088,0.956537,1.023950,1.023950,1.091364,1.091364,1.050915,0.996985,0.996985,0.983502,0.943054,0.902606,0.848675,0.862158,0.835192,0.740813,0.700365,0.605986,0.525090,0.417228,0.349815,0.268919,0.201505,0.120609,0.107126,0.012747,0.026230,-0.027701,-0.054666,1.000000,123.000000
2.157921,-0.332247,-0.292510,-0.292510,-0.292510,-0.292510,-0.319002,-0.358738,-0.371984,-0.411721,-0.411721,-0.385229,-0.319002,-0.319002,-0.292510,-0.266019,-0.266019,-0.279265,-0.332247,-0.332247,-0.371984,-0.411721,-0.385229,-0.398475,-0.411721,-0.358738,-0.319002,-0.305756,-0.266019,-0.279265,-0.319002,-0.332247,-0.385229,-0.358738,-0.371984,-0.358738,-0.345493,-0.332247,-0.279265,-0.279265,-0.292510,-0.332247,-0.385229,-0.385229,-0.398475,-0.345493,-0.345493,-0.279265,-0.226283,-0.173300,-0.120318,-0.080581,-0.040845,0.012138,-0.027599,-0.067336,-0.093827,-0.160055,-0.120318,-0.027599,0.065120,0.224067,0.343277,0.356523,0.383014,0.290295,0.250558,0.210821,0.118102,0.091611,0.051874,0.051874,0.091611,0.104857,0.091611,0.091611,0.038629,-0.040845,-0.133564,-0.266019,-0.332247,-0.424966,-0.464703,-0.464703,-0.424966,-0.398475,-0.411721,-0.385229,-0.411721,-0.464703,-0.464703,-0.517685,-0.517685,-0.544176,-0.557422,-0.544176,-0.517685,-0.504440,-0.451457,-0.424966,-0.464703,-0.438212,-0.464703,-0.504440,-0.491194,-0.517685,-0.530931,-0.464703,-0.438212,-0.438212,-0.398475,-0.438212,-0.411721,-0.464703,-0.424966,-0.451457,-0.411721,-0.424966,-0.385229,-0.411721,-0.358738,-0.332247,-0.279265,-0.279265,-0.213037,-0.226283,-0.186546,-0.173300,-0.080581,0.210821,0.674416,1.336695,2.078447,2.793708,3.575197,4.369931,5.058701,5.562033,5.641506,5.191157,4.343440,3.138093,1.707571,0.263804,-1.007771,-1.921716,-2.305837,-2.345574,-2.080663,-1.683296,-1.352156,-1.140227,-1.073999,-1.060754,-1.021017,-0.888561,-0.729614,-0.583913,-0.464703,-0.332247,-0.319002,-0.385229,-0.464703,-0.491194,-0.517685,-0.504440,-0.504440,-0.464703,-0.464703,-0.451457,-0.424966,-0.424966,-0.398475,-0.438212,-0.385229,-0.424966,-0.424966,-0.451457,-0.438212,-0.385229,-0.385229,-0.371984,-0.371984,-0.371984,-0.332247,-0.332247,-0.398475,-0.411721,-0.411721,-0.398475,-0.411721,-0.358738,-0.332247,-0.358738,-0.358738,-0.332247,-0.332247,-0.358738,-0.424966,-0.411721,-0.411721,-0.385229,-0.411721,-0.385229,-0.371984,-0.345493,-0.292510,-0.252774,-0.252774,-0.239528,-0.239528,-0.279265,-0.279265,-0.252774,-0.239528,-0.213037,-0.173300,-0.146809,-0.093827,-0.080581,-0.054090,-0.040845,-0.014353,-0.080581,-0.067336,-0.067336,-0.040845,0.012138,0.091611,0.157839,0.224067,0.277049,0.303540,0.330032,0.330032,0.343277,0.409505,0.396259,0.409505,0.515470,0.581697,0.674416,0.714153,0.793627,0.859854,0.833363,0.899591,0.873100,0.899591,0.912837,0.899591,0.965819,0.979065,1.045292,1.098275,1.071784,1.058538,1.045292,0.992310,0.899591,0.873100,0.806872,0.740644,0.674416,0.661171,0.608189,0.555206,0.502224,0.435996,0.343277,0.277049,0.171085,0.104857,0.038629,-0.014353,1.000000,123.000000
1.852690,-0.388643,-0.401985,-0.401985,-0.401985,-0.428667,-0.401985,-0.388643,-0.455350,-0.495373,-0.455350,-0.415326,-0.428667,-0.375302,-0.335278,-0.375302,-0.335278,-0.388643,-0.375302,-0.375302,-0.442008,-0.455350,-0.468691,-0.442008,-0.428667,-0.375302,-0.375302,-0.335278,-0.321937,-0.321937,-0.335278,-0.375302,-0.375302,-0.401985,-0.388643,-0.401985,-0.388643,-0.401985,-0.308596,-0.295254,-0.268572,-0.295254,-0.335278,-0.321937,-0.335278,-0.335278,-0.308596,-0.255231,-0.228548,-0.188524,-0.121818,-0.095135,-0.055112,-0.041770,-0.055112,-0.028429,-0.028429,-0.041770,0.024936,0.145007,0.185031,0.265079,0.358468,0.345127,0.305103,0.251738,0.211714,0.185031,0.131666,0.078301,0.118325,0.104984,0.131666,0.145007,0.158349,0.091642,-0.015088,-0.095135,-0.215207,-0.281913,-0.348619,-0.388643,-0.428667,-0.428667,-0.415326,-0.415326,-0.401985,-0.401985,-0.415326,-0.442008,-0.455350,-0.522056,-0.522056,-0.522056,-0.508715,-0.508715,-0.535397,-0.508715,-0.468691,-0.428667,-0.482032,-0.508715,-0.468691,-0.522056,-0.508715,-0.508715,-0.508715,-0.522056,-0.508715,-0.482032,-0.468691,-0.442008,-0.468691,-0.442008,-0.442008,-0.455350,-0.482032,-0.495373,-0.495373,-0.482032,-0.442008,-0.375302,-0.335278,-0.281913,-0.268572,-0.215207,-0.201866,-0.175183,-0.161842,0.051619,0.451857,1.052214,1.785984,2.519753,3.293547,4.080682,4.934523,5.548221,5.788364,5.481515,4.600991,3.226841,1.519158,-0.188524,-1.776135,-2.656659,-2.803413,-2.509905,-2.002937,-1.455945,-1.109072,-0.868929,-0.735516,-0.682151,-0.615445,-0.562080,-0.495373,-0.428667,-0.428667,-0.361961,-0.375302,-0.415326,-0.442008,-0.415326,-0.442008,-0.428667,-0.428667,-0.415326,-0.415326,-0.375302,-0.321937,-0.321937,-0.321937,-0.335278,-0.321937,-0.361961,-0.388643,-0.415326,-0.375302,-0.375302,-0.348619,-0.308596,-0.268572,-0.255231,-0.255231,-0.281913,-0.308596,-0.321937,-0.335278,-0.388643,-0.401985,-0.401985,-0.348619,-0.321937,-0.281913,-0.255231,-0.268572,-0.255231,-0.281913,-0.281913,-0.295254,-0.308596,-0.281913,-0.268572,-0.255231,-0.201866,-0.188524,-0.188524,-0.135159,-0.121818,-0.148500,-0.188524,-0.215207,-0.241889,-0.215207,-0.201866,-0.148500,-0.108477,-0.015088,-0.015088,-0.001746,0.024936,0.064960,0.051619,0.078301,0.104984,0.145007,0.158349,0.171690,0.278420,0.358468,0.411833,0.465198,0.518563,0.571928,0.598611,0.611952,0.651976,0.692000,0.745365,0.798730,0.852095,0.905460,0.985507,0.972166,0.985507,0.972166,1.012190,1.052214,1.038872,1.038872,1.012190,1.012190,0.998849,0.985507,0.958825,0.905460,0.825412,0.745365,0.651976,0.598611,0.491880,0.451857,0.345127,0.345127,0.291761,0.225055,0.185031,0.131666,0.078301,0.024936,-0.001746,-0.041770,-0.095135,-0.148500,1.000000,123.000000
1.839080,-0.326503,-0.326503,-0.339317,-0.339317,-0.326503,-0.313689,-0.326503,-0.262433,-0.223990,-0.275247,-0.262433,-0.313689,-0.326503,-0.326503,-0.339317,-0.339317,-0.300875,-0.275247,-0.249619,-0.249619,-0.223990,-0.275247,-0.262433,-0.313689,-0.339317,-0.313689,-0.326503,-0.339317,-0.364946,-0.313689,-0.249619,-0.223990,-0.249619,-0.262433,-0.275247,-0.262433,-0.288061,-0.300875,-0.313689,-0.339317,-0.275247,-0.262433,-0.249619,-0.211176,-0.185548,-0.198362,-0.198362,-0.198362,-0.198362,-0.159920,-0.134292,-0.044593,-0.006151,0.019477,0.019477,0.057920,0.070734,0.083548,0.121990,0.121990,0.147618,0.198875,0.198875,0.198875,0.224503,0.198875,0.198875,0.173247,0.147618,0.173247,0.096362,0.057920,0.019477,-0.006151,-0.006151,-0.006151,-0.018965,-0.031779,-0.070221,-0.083035,-0.159920,-0.211176,-0.313689,-0.377760,-0.416202,-0.429016,-0.467458,-0.454644,-0.505901,-0.505901,-0.480273,-0.505901,-0.429016,-0.454644,-0.480273,-0.467458,-0.518715,-0.531529,-0.582785,-0.569971,-0.493087,-0.454644,-0.441830,-0.429016,-0.403388,-0.416202,-0.429016,-0.441830,-0.454644,-0.480273,-0.493087,-0.505901,-0.454644,-0.441830,-0.390574,-0.364946,-0.377760,-0.390574,-0.364946,-0.364946,-0.377760,-0.377760,-0.339317,-0.313689,-0.236805,-0.211176,-0.083035,0.070734,0.339830,0.813952,1.403400,2.044105,2.710439,3.402400,4.132804,4.876022,5.439842,5.773009,5.619240,4.927278,3.697125,2.159432,0.519227,-1.031279,-2.069221,-2.440830,-2.299875,-1.825753,-1.287561,-0.826253,-0.582785,-0.531529,-0.582785,-0.672484,-0.634042,-0.646856,-0.569971,-0.531529,-0.505901,-0.441830,-0.429016,-0.429016,-0.441830,-0.441830,-0.467458,-0.480273,-0.505901,-0.505901,-0.493087,-0.505901,-0.505901,-0.493087,-0.467458,-0.429016,-0.416202,-0.416202,-0.429016,-0.416202,-0.416202,-0.454644,-0.480273,-0.467458,-0.480273,-0.480273,-0.467458,-0.454644,-0.454644,-0.403388,-0.403388,-0.416202,-0.416202,-0.429016,-0.454644,-0.493087,-0.480273,-0.505901,-0.467458,-0.416202,-0.403388,-0.416202,-0.364946,-0.390574,-0.377760,-0.390574,-0.416202,-0.390574,-0.416202,-0.390574,-0.429016,-0.364946,-0.313689,-0.275247,-0.275247,-0.275247,-0.300875,-0.313689,-0.339317,-0.326503,-0.313689,-0.288061,-0.249619,-0.185548,-0.121478,-0.134292,-0.095849,-0.057407,-0.044593,-0.031779,-0.031779,0.006663,0.006663,0.032292,0.096362,0.173247,0.237317,0.275759,0.314202,0.391086,0.416715,0.442343,0.455157,0.519227,0.519227,0.570484,0.621740,0.698625,0.775509,0.813952,0.852394,0.890836,0.916465,0.929279,0.942093,0.916465,0.916465,0.903650,0.967721,0.954907,0.929279,0.929279,0.878022,0.826766,0.749881,0.660183,0.608926,0.519227,0.467971,0.455157,0.365458,0.327016,0.275759,0.211689,0.173247,0.109176,1.000000,123.000000
2.034795,-0.375757,-0.361824,-0.445427,-0.431493,-0.445427,-0.445427,-0.445427,-0.431493,-0.417559,-0.403625,-0.361824,-0.361824,-0.389691,-0.347890,-0.389691,-0.417559,-0.431493,-0.459360,-0.431493,-0.417559,-0.389691,-0.403625,-0.389691,-0.375757,-0.333956,-0.347890,-0.347890,-0.403625,-0.403625,-0.389691,-0.431493,-0.403625,-0.445427,-0.389691,-0.389691,-0.389691,-0.389691,-0.389691,-0.333956,-0.361824,-0.417559,-0.403625,-0.445427,-0.459360,-0.445427,-0.403625,-0.347890,-0.278221,-0.250353,-0.208551,-0.194618,-0.180684,-0.166750,-0.166750,-0.111015,-0.097081,-0.069213,-0.027412,-0.027412,0.014390,0.042258,0.153728,0.223397,0.279133,0.293066,0.293066,0.251265,0.195530,0.167662,0.125860,0.111927,0.139794,0.111927,0.084059,0.056191,0.028324,-0.013478,-0.069213,-0.152816,-0.264287,-0.333956,-0.347890,-0.403625,-0.389691,-0.459360,-0.417559,-0.459360,-0.487228,-0.515096,-0.542963,-0.584765,-0.584765,-0.542963,-0.515096,-0.473294,-0.431493,-0.473294,-0.529030,-0.515096,-0.529030,-0.556897,-0.584765,-0.556897,-0.556897,-0.515096,-0.487228,-0.487228,-0.445427,-0.431493,-0.487228,-0.473294,-0.473294,-0.487228,-0.473294,-0.515096,-0.459360,-0.487228,-0.445427,-0.403625,-0.347890,-0.306088,-0.292154,-0.292154,-0.278221,-0.278221,-0.306088,-0.250353,-0.124948,0.139794,0.613545,1.240567,1.992994,2.745421,3.525715,4.389613,5.155973,5.643657,5.671525,5.183841,4.138804,2.731487,1.129096,-0.403625,-1.643736,-2.382229,-2.465832,-2.284692,-1.797008,-1.406861,-1.114250,-0.919177,-0.891309,-0.807706,-0.710169,-0.626566,-0.459360,-0.361824,-0.333956,-0.333956,-0.375757,-0.445427,-0.487228,-0.473294,-0.459360,-0.459360,-0.417559,-0.417559,-0.347890,-0.320022,-0.306088,-0.333956,-0.361824,-0.403625,-0.431493,-0.445427,-0.417559,-0.417559,-0.403625,-0.347890,-0.333956,-0.333956,-0.347890,-0.389691,-0.431493,-0.473294,-0.417559,-0.431493,-0.417559,-0.445427,-0.403625,-0.361824,-0.278221,-0.264287,-0.250353,-0.278221,-0.292154,-0.347890,-0.333956,-0.403625,-0.361824,-0.320022,-0.292154,-0.306088,-0.264287,-0.250353,-0.250353,-0.236419,-0.264287,-0.292154,-0.361824,-0.236419,-0.250353,-0.222485,-0.194618,-0.111015,-0.055279,-0.041345,-0.013478,0.000456,-0.027412,0.014390,0.000456,0.028324,0.070125,0.097993,0.153728,0.251265,0.362736,0.376669,0.432405,0.418471,0.404537,0.446339,0.488140,0.529942,0.571743,0.627478,0.683214,0.794684,0.836486,0.892221,0.934023,0.920089,0.975824,0.975824,0.975824,1.031559,1.073361,1.087295,1.129096,1.101229,1.115162,1.156964,1.073361,1.059427,0.961890,0.947956,0.878287,0.836486,0.738949,0.711081,0.655346,0.613545,0.627478,0.543875,0.432405,0.376669,0.334868,0.195530,0.139794,0.042258,0.028324,0.028324,-0.027412,1.000000,123.000000
1.757426,-0.371673,-0.332000,-0.305552,-0.279103,-0.318776,-0.305552,-0.332000,-0.318776,-0.332000,-0.345224,-0.358448,-0.358448,-0.345224,-0.332000,-0.305552,-0.318776,-0.305552,-0.292327,-0.305552,-0.318776,-0.332000,-0.398121,-0.398121,-0.332000,-0.345224,-0.292327,-0.265879,-0.265879,-0.252655,-0.305552,-0.332000,-0.358448,-0.332000,-0.345224,-0.358448,-0.358448,-0.371673,-0.305552,-0.252655,-0.239430,-0.186534,-0.186534,-0.265879,-0.292327,-0.226206,-0.239430,-0.199758,-0.173309,-0.093964,-0.054291,0.011830,0.038278,-0.001395,0.025054,0.011830,0.064727,0.117623,0.157296,0.249866,0.315987,0.315987,0.342435,0.315987,0.302762,0.302762,0.223417,0.196969,0.144072,0.144072,0.130848,0.104399,0.064727,0.091175,0.104399,-0.001395,-0.067516,-0.133637,-0.239430,-0.318776,-0.332000,-0.371673,-0.398121,-0.398121,-0.464242,-0.451018,-0.424569,-0.451018,-0.411345,-0.437794,-0.451018,-0.451018,-0.437794,-0.451018,-0.477466,-0.477466,-0.464242,-0.451018,-0.464242,-0.398121,-0.384897,-0.411345,-0.398121,-0.437794,-0.451018,-0.464242,-0.477466,-0.490691,-0.517139,-0.451018,-0.451018,-0.384897,-0.371673,-0.384897,-0.384897,-0.384897,-0.371673,-0.384897,-0.398121,-0.424569,-0.398121,-0.345224,-0.265879,-0.265879,-0.186534,-0.160085,-0.146861,-0.107188,-0.001395,0.223417,0.633368,1.228458,1.876444,2.603776,3.278211,4.018767,4.772547,5.367637,5.658570,5.486655,4.865117,3.793955,2.392188,0.805283,-0.728726,-1.879233,-2.540444,-2.619789,-2.355305,-1.839561,-1.416386,-1.112229,-0.993211,-0.927090,-0.927090,-0.860969,-0.755175,-0.675830,-0.503915,-0.384897,-0.358448,-0.305552,-0.371673,-0.437794,-0.437794,-0.543587,-0.517139,-0.477466,-0.464242,-0.437794,-0.384897,-0.345224,-0.332000,-0.305552,-0.305552,-0.318776,-0.345224,-0.411345,-0.411345,-0.398121,-0.411345,-0.411345,-0.358448,-0.358448,-0.305552,-0.305552,-0.345224,-0.371673,-0.384897,-0.411345,-0.384897,-0.411345,-0.384897,-0.398121,-0.358448,-0.332000,-0.305552,-0.371673,-0.358448,-0.371673,-0.384897,-0.411345,-0.371673,-0.371673,-0.411345,-0.398121,-0.332000,-0.345224,-0.305552,-0.292327,-0.265879,-0.292327,-0.345224,-0.358448,-0.345224,-0.371673,-0.332000,-0.292327,-0.239430,-0.199758,-0.212982,-0.160085,-0.107188,-0.107188,-0.133637,-0.107188,-0.107188,-0.054291,-0.054291,-0.001395,0.064727,0.064727,0.091175,0.144072,0.183744,0.210193,0.236641,0.249866,0.263090,0.289538,0.355659,0.395332,0.474677,0.554023,0.593695,0.620144,0.673040,0.673040,0.712713,0.725937,0.739162,0.765610,0.805283,0.858179,0.897852,0.950749,0.990422,1.003646,0.990422,0.937525,0.937525,0.858179,0.844955,0.792058,0.778834,0.725937,0.712713,0.659816,0.606919,0.580471,0.487901,0.382108,0.276314,0.196969,0.157296,1.000000,123.000000
1.984076,-0.354875,-0.381760,-0.354875,-0.354875,-0.354875,-0.314549,-0.314549,-0.301106,-0.247337,-0.274222,-0.274222,-0.327991,-0.314549,-0.327991,-0.314549,-0.341433,-0.341433,-0.314549,-0.327991,-0.314549,-0.260780,-0.274222,-0.274222,-0.260780,-0.274222,-0.314549,-0.327991,-0.341433,-0.301106,-0.354875,-0.314549,-0.260780,-0.274222,-0.247337,-0.247337,-0.287664,-0.301106,-0.301106,-0.341433,-0.368318,-0.354875,-0.314549,-0.301106,-0.260780,-0.247337,-0.220453,-0.207011,-0.193568,-0.207011,-0.207011,-0.220453,-0.166684,-0.153242,-0.059146,0.021508,0.048392,0.102161,0.115603,0.102161,0.088719,0.102161,0.115603,0.155930,0.209699,0.303795,0.317237,0.303795,0.276910,0.263468,0.196257,0.182815,0.142488,0.088719,0.088719,0.088719,0.021508,0.034950,0.008065,0.021508,-0.032261,-0.032261,-0.126357,-0.207011,-0.287664,-0.395202,-0.408644,-0.516182,-0.462413,-0.529625,-0.516182,-0.462413,-0.462413,-0.448971,-0.448971,-0.435529,-0.462413,-0.475856,-0.462413,-0.543067,-0.556509,-0.543067,-0.516182,-0.462413,-0.422087,-0.408644,-0.422087,-0.395202,-0.408644,-0.448971,-0.475856,-0.516182,-0.475856,-0.489298,-0.475856,-0.448971,-0.408644,-0.368318,-0.395202,-0.381760,-0.381760,-0.381760,-0.408644,-0.381760,-0.395202,-0.354875,-0.341433,-0.193568,-0.086030,0.088719,0.465102,1.016234,1.701788,2.467996,3.301416,4.121393,4.995139,5.667251,5.962981,5.640367,4.833832,3.489607,1.769000,0.048392,-1.430255,-2.330886,-2.519077,-2.223348,-1.645331,-1.053872,-0.704374,-0.556509,-0.556509,-0.583394,-0.637162,-0.650605,-0.569951,-0.543067,-0.475856,-0.435529,-0.408644,-0.475856,-0.448971,-0.435529,-0.422087,-0.422087,-0.422087,-0.408644,-0.422087,-0.448971,-0.435529,-0.489298,-0.489298,-0.475856,-0.448971,-0.448971,-0.422087,-0.395202,-0.381760,-0.368318,-0.395202,-0.462413,-0.489298,-0.502740,-0.502740,-0.502740,-0.448971,-0.448971,-0.368318,-0.327991,-0.354875,-0.368318,-0.381760,-0.408644,-0.435529,-0.448971,-0.502740,-0.489298,-0.448971,-0.448971,-0.408644,-0.354875,-0.341433,-0.368318,-0.435529,-0.435529,-0.462413,-0.435529,-0.422087,-0.422087,-0.395202,-0.341433,-0.287664,-0.274222,-0.247337,-0.247337,-0.287664,-0.260780,-0.247337,-0.247337,-0.220453,-0.220453,-0.180126,-0.139799,-0.072588,-0.032261,-0.005377,0.034950,0.061834,0.048392,0.075277,0.075277,0.155930,0.142488,0.223141,0.303795,0.357564,0.438217,0.491986,0.518871,0.545755,0.559197,0.586082,0.626409,0.653293,0.707062,0.747389,0.801158,0.854927,0.949023,0.962465,1.029676,1.029676,1.002792,0.989349,0.962465,0.949023,0.922138,0.895254,0.922138,0.854927,0.828042,0.787716,0.747389,0.693620,0.572640,0.478544,0.411333,0.357564,0.303795,0.209699,0.155930,0.115603,0.115603,0.061834,1.000000,123.000000
2.311641,-0.317083,-0.345197,-0.345197,-0.373312,-0.415484,-0.359255,-0.359255,-0.303025,-0.288968,-0.288968,-0.288968,-0.274911,-0.246796,-0.345197,-0.415484,-0.331140,-0.387369,-0.359255,-0.331140,-0.331140,-0.303025,-0.303025,-0.303025,-0.331140,-0.331140,-0.345197,-0.359255,-0.373312,-0.373312,-0.387369,-0.373312,-0.359255,-0.303025,-0.274911,-0.317083,-0.274911,-0.246796,-0.288968,-0.303025,-0.345197,-0.345197,-0.359255,-0.387369,-0.303025,-0.232738,-0.176509,-0.148394,-0.092165,-0.078108,-0.035936,-0.035936,-0.049993,-0.035936,-0.035936,0.006236,0.048408,0.090580,0.160867,0.203039,0.315498,0.343613,0.329555,0.329555,0.287383,0.174924,0.188982,0.231154,0.174924,0.160867,0.160867,0.132752,0.160867,0.118695,0.076523,0.006236,-0.064050,-0.148394,-0.148394,-0.274911,-0.345197,-0.303025,-0.359255,-0.401427,-0.401427,-0.429541,-0.457656,-0.513885,-0.513885,-0.513885,-0.527943,-0.542000,-0.542000,-0.485771,-0.527943,-0.499828,-0.499828,-0.527943,-0.527943,-0.542000,-0.542000,-0.570115,-0.542000,-0.542000,-0.513885,-0.499828,-0.485771,-0.499828,-0.485771,-0.471713,-0.499828,-0.527943,-0.485771,-0.513885,-0.513885,-0.542000,-0.485771,-0.485771,-0.443599,-0.415484,-0.345197,-0.345197,-0.345197,-0.331140,-0.317083,-0.331140,-0.274911,-0.260853,-0.078108,0.203039,0.652874,1.341684,2.058608,2.761475,3.506515,4.265611,5.038765,5.516715,5.685403,5.263682,4.364013,3.070737,1.496315,-0.035936,-1.357326,-2.256996,-2.524085,-2.369455,-1.947734,-1.554129,-1.188638,-1.019950,-0.921548,-0.921548,-0.809090,-0.710688,-0.640401,-0.499828,-0.415484,-0.401427,-0.387369,-0.415484,-0.499828,-0.513885,-0.527943,-0.513885,-0.457656,-0.415484,-0.415484,-0.359255,-0.387369,-0.401427,-0.443599,-0.443599,-0.415484,-0.429541,-0.443599,-0.387369,-0.345197,-0.359255,-0.359255,-0.359255,-0.387369,-0.429541,-0.415484,-0.457656,-0.443599,-0.429541,-0.415484,-0.401427,-0.359255,-0.317083,-0.331140,-0.345197,-0.345197,-0.401427,-0.373312,-0.387369,-0.415484,-0.359255,-0.359255,-0.331140,-0.303025,-0.260853,-0.246796,-0.260853,-0.246796,-0.274911,-0.331140,-0.303025,-0.303025,-0.303025,-0.260853,-0.232738,-0.232738,-0.176509,-0.120280,-0.106222,-0.106222,-0.148394,-0.148394,-0.148394,-0.148394,-0.120280,-0.064050,-0.021878,0.062466,0.076523,0.146810,0.217096,0.245211,0.273326,0.245211,0.287383,0.315498,0.357670,0.427957,0.512301,0.624759,0.695046,0.723161,0.737218,0.793448,0.793448,0.779390,0.863734,0.849677,0.934021,0.934021,0.990250,1.060537,1.074594,1.074594,1.088652,1.074594,1.004308,0.962136,0.905906,0.863734,0.835620,0.793448,0.751276,0.723161,0.666931,0.596645,0.568530,0.456071,0.371727,0.287383,0.245211,0.132752,0.076523,0.048408,-0.035936,-0.007821,1.000000,123.000000
2.208027,-0.366329,-0.325466,-0.325466,-0.298224,-0.257361,-0.298224,-0.298224,-0.325466,-0.325466,-0.366329,-0.379950,-0.393571,-0.393571,-0.366329,-0.339087,-0.311845,-0.284603,-0.270982,-0.257361,-0.298224,-0.325466,-0.339087,-0.325466,-0.339087,-0.339087,-0.339087,-0.339087,-0.270982,-0.257361,-0.243740,-0.298224,-0.284603,-0.298224,-0.311845,-0.311845,-0.339087,-0.339087,-0.352708,-0.284603,-0.311845,-0.257361,-0.243740,-0.270982,-0.257361,-0.284603,-0.270982,-0.339087,-0.325466,-0.216499,-0.189257,-0.134773,-0.107531,-0.053047,0.028678,0.015057,0.015057,0.015057,-0.012185,0.015057,0.069541,0.151267,0.232992,0.314718,0.328339,0.314718,0.341960,0.301097,0.232992,0.192129,0.151267,0.110404,0.137646,0.151267,0.151267,0.164888,0.110404,0.055920,-0.053047,-0.148394,-0.270982,-0.325466,-0.352708,-0.379950,-0.393571,-0.393571,-0.407192,-0.407192,-0.434433,-0.420812,-0.407192,-0.407192,-0.420812,-0.475296,-0.475296,-0.488917,-0.529780,-0.502538,-0.502538,-0.475296,-0.488917,-0.434433,-0.488917,-0.461675,-0.475296,-0.475296,-0.488917,-0.516159,-0.502538,-0.448054,-0.420812,-0.407192,-0.379950,-0.379950,-0.339087,-0.393571,-0.339087,-0.393571,-0.434433,-0.407192,-0.379950,-0.379950,-0.298224,-0.298224,-0.243740,-0.175636,-0.162015,-0.121152,-0.012185,0.151267,0.600757,1.200078,1.949230,2.725623,3.542878,4.441860,5.218253,5.763090,5.817574,5.272737,4.128579,2.630276,0.886797,-0.856682,-2.096187,-2.763613,-2.818096,-2.491194,-1.959978,-1.428761,-1.115480,-0.897545,-0.815819,-0.802199,-0.720473,-0.693231,-0.570643,-0.529780,-0.434433,-0.379950,-0.366329,-0.366329,-0.379950,-0.352708,-0.379950,-0.420812,-0.448054,-0.448054,-0.448054,-0.434433,-0.434433,-0.366329,-0.352708,-0.325466,-0.325466,-0.325466,-0.366329,-0.393571,-0.393571,-0.407192,-0.448054,-0.448054,-0.379950,-0.407192,-0.379950,-0.311845,-0.298224,-0.339087,-0.339087,-0.366329,-0.393571,-0.448054,-0.434433,-0.393571,-0.379950,-0.352708,-0.352708,-0.311845,-0.339087,-0.311845,-0.311845,-0.352708,-0.366329,-0.393571,-0.379950,-0.339087,-0.325466,-0.284603,-0.243740,-0.202878,-0.216499,-0.202878,-0.189257,-0.216499,-0.230119,-0.202878,-0.189257,-0.189257,-0.134773,-0.107531,-0.080289,0.001436,0.001436,0.055920,0.055920,0.055920,0.069541,0.110404,0.110404,0.205750,0.260234,0.273855,0.328339,0.396443,0.423685,0.464548,0.546274,0.532653,0.519032,0.478169,0.587136,0.627999,0.682483,0.777829,0.805071,0.859555,0.886797,0.914039,0.941281,0.927660,0.927660,0.832313,0.914039,0.900418,0.927660,0.914039,0.873176,0.900418,0.859555,0.818692,0.750588,0.696104,0.573515,0.505411,0.437306,0.410064,0.355581,0.301097,0.273855,0.232992,0.164888,0.110404,0.083162,0.042299,-0.025805,1.000000,123.000000
2.185673,-0.405449,-0.352023,-0.338667,-0.298598,-0.311954,-0.298598,-0.352023,-0.378736,-0.378736,-0.378736,-0.365380,-0.392092,-0.378736,-0.365380,-0.338667,-0.325311,-0.298598,-0.325311,-0.285242,-0.298598,-0.298598,-0.352023,-0.405449,-0.392092,-0.405449,-0.392092,-0.378736,-0.338667,-0.311954,-0.285242,-0.285242,-0.325311,-0.352023,-0.365380,-0.365380,-0.365380,-0.378736,-0.352023,-0.325311,-0.298598,-0.258529,-0.298598,-0.285242,-0.218460,-0.245173,-0.258529,-0.231817,-0.231817,-0.205104,-0.138323,-0.058185,-0.004760,0.048665,0.075378,0.021953,0.075378,0.088734,0.102091,0.155516,0.168872,0.195585,0.262366,0.289079,0.275722,0.262366,0.249010,0.222297,0.182228,0.088734,0.115447,0.062022,0.008597,0.021953,-0.044829,-0.084897,-0.058185,-0.004760,-0.084897,-0.178392,-0.258529,-0.325311,-0.405449,-0.432161,-0.458874,-0.458874,-0.512299,-0.525655,-0.498943,-0.472230,-0.458874,-0.458874,-0.472230,-0.539011,-0.525655,-0.565724,-0.552368,-0.552368,-0.552368,-0.525655,-0.485586,-0.472230,-0.472230,-0.485586,-0.485586,-0.498943,-0.512299,-0.552368,-0.552368,-0.525655,-0.485586,-0.458874,-0.458874,-0.472230,-0.458874,-0.472230,-0.418805,-0.405449,-0.432161,-0.418805,-0.445517,-0.432161,-0.378736,-0.325311,-0.285242,-0.218460,-0.165035,-0.111610,0.008597,0.195585,0.516136,1.090456,1.758271,2.399373,3.187395,3.921991,4.710012,5.364471,5.725091,5.658309,5.070632,4.028841,2.573005,0.943537,-0.672574,-1.834572,-2.435605,-2.368824,-1.954779,-1.300320,-0.806137,-0.525655,-0.432161,-0.512299,-0.632506,-0.685931,-0.645862,-0.605793,-0.539011,-0.458874,-0.405449,-0.365380,-0.392092,-0.405449,-0.405449,-0.458874,-0.458874,-0.498943,-0.512299,-0.485586,-0.458874,-0.405449,-0.418805,-0.392092,-0.365380,-0.392092,-0.405449,-0.418805,-0.458874,-0.458874,-0.472230,-0.525655,-0.485586,-0.472230,-0.432161,-0.432161,-0.405449,-0.392092,-0.405449,-0.418805,-0.458874,-0.445517,-0.485586,-0.458874,-0.432161,-0.405449,-0.392092,-0.378736,-0.365380,-0.325311,-0.325311,-0.338667,-0.392092,-0.392092,-0.392092,-0.378736,-0.338667,-0.325311,-0.338667,-0.325311,-0.271886,-0.271886,-0.271886,-0.271886,-0.311954,-0.258529,-0.271886,-0.271886,-0.258529,-0.218460,-0.124966,-0.084897,-0.071541,-0.058185,-0.071541,-0.058185,-0.071541,-0.018116,-0.031472,-0.004760,0.088734,0.088734,0.182228,0.249010,0.262366,0.302435,0.342504,0.382573,0.382573,0.422642,0.422642,0.476067,0.529492,0.636342,0.676411,0.716480,0.729836,0.796618,0.836687,0.836687,0.850043,0.903468,0.876756,0.890112,0.956893,0.956893,0.996962,1.010319,0.983606,0.983606,0.916825,0.890112,0.796618,0.729836,0.649699,0.569561,0.516136,0.502779,0.489423,0.422642,0.369217,0.315791,0.208941,0.075378,0.021953,1.000000,123.000000
2.359963,-0.375713,-0.319307,-0.305206,-0.305206,-0.305206,-0.361612,-0.361612,-0.361612,-0.403916,-0.418017,-0.375713,-0.333409,-0.333409,-0.291105,-0.291105,-0.291105,-0.305206,-0.305206,-0.347510,-0.361612,-0.347510,-0.403916,-0.389815,-0.375713,-0.333409,-0.305206,-0.277003,-0.277003,-0.291105,-0.319307,-0.333409,-0.361612,-0.375713,-0.403916,-0.389815,-0.305206,-0.305206,-0.291105,-0.291105,-0.291105,-0.262902,-0.262902,-0.319307,-0.347510,-0.319307,-0.333409,-0.262902,-0.234699,-0.178293,-0.079583,-0.037279,-0.009076,0.019127,-0.009076,0.005025,-0.023178,-0.093685,-0.023178,0.047330,0.160141,0.230648,0.315257,0.329358,0.343459,0.315257,0.216547,0.131938,0.117837,0.075532,-0.037279,0.019127,0.061431,0.061431,0.061431,0.061431,0.019127,-0.009076,-0.079583,-0.206496,-0.305206,-0.389815,-0.432119,-0.446220,-0.488525,-0.460322,-0.446220,-0.460322,-0.502626,-0.502626,-0.516727,-0.530829,-0.544930,-0.587235,-0.587235,-0.559032,-0.559032,-0.544930,-0.530829,-0.474423,-0.446220,-0.474423,-0.544930,-0.573133,-0.601336,-0.601336,-0.629539,-0.629539,-0.601336,-0.530829,-0.530829,-0.488525,-0.474423,-0.488525,-0.488525,-0.474423,-0.502626,-0.502626,-0.474423,-0.460322,-0.446220,-0.389815,-0.361612,-0.305206,-0.248800,-0.248800,-0.206496,-0.107786,0.005025,0.343459,0.837009,1.429269,2.134340,2.839411,3.516280,4.207249,4.912320,5.434073,5.589189,5.250755,4.432872,3.276555,1.795906,0.230648,-1.123089,-1.997377,-2.378115,-2.208898,-1.842261,-1.419218,-1.052581,-0.883364,-0.826959,-0.784654,-0.770553,-0.714147,-0.629539,-0.544930,-0.460322,-0.389815,-0.418017,-0.446220,-0.474423,-0.516727,-0.502626,-0.502626,-0.516727,-0.502626,-0.446220,-0.460322,-0.418017,-0.389815,-0.418017,-0.418017,-0.460322,-0.474423,-0.516727,-0.516727,-0.502626,-0.460322,-0.474423,-0.446220,-0.418017,-0.389815,-0.361612,-0.389815,-0.418017,-0.432119,-0.432119,-0.474423,-0.488525,-0.488525,-0.474423,-0.460322,-0.446220,-0.389815,-0.375713,-0.305206,-0.375713,-0.389815,-0.418017,-0.460322,-0.432119,-0.418017,-0.361612,-0.319307,-0.333409,-0.277003,-0.248800,-0.277003,-0.262902,-0.277003,-0.291105,-0.262902,-0.277003,-0.262902,-0.234699,-0.206496,-0.192395,-0.079583,-0.079583,-0.051380,-0.023178,-0.051380,-0.037279,-0.023178,0.005025,0.075532,0.146039,0.202445,0.272952,0.329358,0.301155,0.385764,0.442169,0.456271,0.498575,0.498575,0.554981,0.583184,0.667792,0.738299,0.724198,0.865212,0.893415,0.907516,0.949821,0.963922,0.949821,0.992125,1.006226,1.006226,1.076733,1.076733,1.090835,1.090835,1.062632,1.034429,0.992125,0.907516,0.837009,0.780603,0.710096,0.625488,0.597285,0.498575,0.484474,0.470372,0.385764,0.315257,0.258851,0.188344,0.089634,0.047330,0.005025,1.000000,123.000000
2.125642,-0.397448,-0.397448,-0.397448,-0.410868,-0.437710,-0.477972,-0.477972,-0.504813,-0.464551,-0.424289,-0.464551,-0.384027,-0.437710,-0.410868,-0.370606,-0.370606,-0.384027,-0.424289,-0.437710,-0.451130,-0.451130,-0.397448,-0.410868,-0.370606,-0.357186,-0.330344,-0.343765,-0.410868,-0.424289,-0.451130,-0.451130,-0.410868,-0.384027,-0.343765,-0.357186,-0.330344,-0.330344,-0.330344,-0.343765,-0.343765,-0.343765,-0.330344,-0.357186,-0.303503,-0.290082,-0.182717,-0.102192,-0.035089,-0.035089,-0.048510,-0.008248,-0.075351,-0.061930,0.032014,0.112539,0.193063,0.260166,0.300428,0.313849,0.327270,0.287008,0.273587,0.206483,0.152801,0.139380,0.125959,0.072277,0.099118,0.085697,0.099118,0.072277,0.032014,-0.115613,-0.209558,-0.303503,-0.397448,-0.410868,-0.410868,-0.437710,-0.451130,-0.451130,-0.464551,-0.424289,-0.437710,-0.451130,-0.424289,-0.424289,-0.464551,-0.464551,-0.477972,-0.531655,-0.504813,-0.504813,-0.477972,-0.410868,-0.397448,-0.410868,-0.437710,-0.477972,-0.518234,-0.491392,-0.518234,-0.477972,-0.491392,-0.491392,-0.410868,-0.424289,-0.384027,-0.370606,-0.384027,-0.384027,-0.437710,-0.410868,-0.464551,-0.437710,-0.437710,-0.410868,-0.357186,-0.276661,-0.222979,-0.209558,-0.182717,-0.209558,-0.222979,-0.236399,-0.209558,-0.129034,0.099118,0.474897,1.025145,1.682759,2.340373,3.011407,3.722704,4.407159,5.091614,5.494235,5.615021,5.118456,4.192428,2.850359,1.266718,-0.330344,-1.591889,-2.410551,-2.598441,-2.437392,-2.034772,-1.632151,-1.310054,-1.055061,-0.947696,-0.813489,-0.692703,-0.639020,-0.491392,-0.424289,-0.357186,-0.316923,-0.370606,-0.397448,-0.424289,-0.477972,-0.491392,-0.451130,-0.397448,-0.343765,-0.303503,-0.343765,-0.316923,-0.357186,-0.370606,-0.384027,-0.397448,-0.397448,-0.384027,-0.357186,-0.357186,-0.290082,-0.303503,-0.303503,-0.303503,-0.343765,-0.330344,-0.384027,-0.384027,-0.397448,-0.437710,-0.384027,-0.330344,-0.316923,-0.276661,-0.290082,-0.290082,-0.316923,-0.330344,-0.370606,-0.357186,-0.370606,-0.370606,-0.370606,-0.343765,-0.276661,-0.316923,-0.330344,-0.276661,-0.290082,-0.290082,-0.290082,-0.316923,-0.276661,-0.276661,-0.249820,-0.209558,-0.142455,-0.102192,-0.075351,-0.088772,-0.075351,-0.088772,-0.102192,-0.088772,-0.061930,-0.048510,0.005173,0.058856,0.085697,0.152801,0.193063,0.219904,0.219904,0.206483,0.260166,0.246745,0.287008,0.327270,0.354111,0.421214,0.501739,0.555421,0.649366,0.635945,0.635945,0.662787,0.649366,0.676208,0.703049,0.770152,0.783573,0.850676,0.890939,0.958042,0.971463,0.971463,0.971463,0.944621,0.917780,0.917780,0.877518,0.810414,0.823835,0.810414,0.810414,0.770152,0.756732,0.662787,0.582263,0.528580,0.461477,0.407794,0.340690,0.300428,0.219904,0.206483,1.000000,123.000000
2.041131,-0.415916,-0.360702,-0.319291,-0.346898,-0.319291,-0.319291,-0.333094,-0.374505,-0.402113,-0.415916,-0.429720,-0.484934,-0.443523,-0.429720,-0.374505,-0.333094,-0.291683,-0.291683,-0.291683,-0.346898,-0.319291,-0.388309,-0.429720,-0.402113,-0.429720,-0.388309,-0.346898,-0.346898,-0.319291,-0.291683,-0.333094,-0.333094,-0.374505,-0.360702,-0.415916,-0.429720,-0.388309,-0.346898,-0.319291,-0.319291,-0.291683,-0.277880,-0.250273,-0.277880,-0.277880,-0.277880,-0.250273,-0.222665,-0.126040,-0.070825,0.011997,0.011997,0.053408,0.039604,0.011997,-0.015611,-0.001807,0.025800,0.108622,0.163837,0.219051,0.246658,0.260462,0.260462,0.232855,0.205248,0.177640,0.122426,0.053408,0.039604,0.039604,-0.015611,-0.015611,0.053408,0.011997,-0.015611,-0.029414,-0.112236,-0.167451,-0.277880,-0.346898,-0.429720,-0.484934,-0.498738,-0.512542,-0.512542,-0.498738,-0.443523,-0.443523,-0.415916,-0.429720,-0.471131,-0.471131,-0.526345,-0.567756,-0.540149,-0.540149,-0.498738,-0.457327,-0.443523,-0.415916,-0.443523,-0.443523,-0.443523,-0.484934,-0.512542,-0.512542,-0.540149,-0.526345,-0.512542,-0.484934,-0.429720,-0.402113,-0.402113,-0.346898,-0.388309,-0.429720,-0.457327,-0.388309,-0.402113,-0.346898,-0.319291,-0.236469,-0.208862,-0.167451,-0.112236,-0.043218,0.136229,0.426106,0.909233,1.544200,2.192971,2.938368,3.656157,4.401554,5.119343,5.671488,5.795721,5.436826,4.553394,3.255852,1.654630,0.067211,-1.257938,-2.113764,-2.307015,-2.072353,-1.589225,-1.023276,-0.678185,-0.526345,-0.498738,-0.595363,-0.691989,-0.705793,-0.650578,-0.567756,-0.443523,-0.402113,-0.360702,-0.374505,-0.346898,-0.374505,-0.443523,-0.498738,-0.484934,-0.471131,-0.471131,-0.443523,-0.415916,-0.388309,-0.346898,-0.374505,-0.360702,-0.374505,-0.429720,-0.402113,-0.429720,-0.429720,-0.443523,-0.429720,-0.415916,-0.457327,-0.360702,-0.346898,-0.402113,-0.374505,-0.374505,-0.402113,-0.443523,-0.471131,-0.484934,-0.457327,-0.415916,-0.402113,-0.333094,-0.333094,-0.346898,-0.360702,-0.388309,-0.415916,-0.429720,-0.484934,-0.429720,-0.429720,-0.402113,-0.360702,-0.333094,-0.291683,-0.264076,-0.264076,-0.277880,-0.305487,-0.305487,-0.305487,-0.333094,-0.291683,-0.277880,-0.208862,-0.167451,-0.139843,-0.070825,-0.084629,-0.070825,-0.098432,-0.098432,-0.070825,-0.057022,0.011997,0.081015,0.136229,0.150033,0.232855,0.260462,0.288069,0.315677,0.329480,0.370891,0.384695,0.398498,0.481320,0.536535,0.633160,0.702179,0.743589,0.785000,0.826411,0.798804,0.840215,0.826411,0.840215,0.867822,0.895429,0.936840,0.978251,0.978251,0.964448,0.992055,0.950644,0.867822,0.798804,0.715982,0.633160,0.605553,0.564142,0.522731,0.481320,0.439909,0.398498,0.343284,0.274266,0.177640,0.067211,-0.001807,1.000000,123.000000
2.396011,-0.293885,-0.233097,-0.248294,-0.278688,-0.278688,-0.293885,-0.354674,-0.354674,-0.354674,-0.369871,-0.324280,-0.339477,-0.248294,-0.263491,-0.278688,-0.248294,-0.293885,-0.309083,-0.369871,-0.369871,-0.385068,-0.339477,-0.324280,-0.293885,-0.233097,-0.233097,-0.248294,-0.217900,-0.293885,-0.309083,-0.339477,-0.354674,-0.354674,-0.369871,-0.324280,-0.293885,-0.263491,-0.233097,-0.217900,-0.248294,-0.278688,-0.293885,-0.309083,-0.354674,-0.293885,-0.278688,-0.248294,-0.217900,-0.111519,-0.020337,0.025255,0.101241,0.101241,0.055649,0.025255,0.040452,0.025255,0.055649,0.116438,0.222818,0.329198,0.374790,0.420381,0.405184,0.405184,0.344395,0.298804,0.207621,0.177226,0.146832,0.207621,0.162029,0.192424,0.207621,0.207621,0.146832,0.131635,-0.020337,-0.126717,-0.217900,-0.217900,-0.309083,-0.339477,-0.354674,-0.324280,-0.354674,-0.369871,-0.385068,-0.445857,-0.521843,-0.552237,-0.582631,-0.582631,-0.537040,-0.567434,-0.506646,-0.445857,-0.445857,-0.506646,-0.552237,-0.521843,-0.506646,-0.506646,-0.552237,-0.582631,-0.491448,-0.461054,-0.461054,-0.461054,-0.415463,-0.415463,-0.430660,-0.445857,-0.445857,-0.506646,-0.537040,-0.521843,-0.506646,-0.415463,-0.445857,-0.339477,-0.354674,-0.324280,-0.309083,-0.263491,-0.187505,-0.157111,-0.065928,0.177226,0.587550,1.210633,1.924899,2.608772,3.399024,4.234867,4.949134,5.602611,5.739386,5.389851,4.478022,3.125475,1.605759,0.010058,-1.266503,-2.117544,-2.391093,-2.223924,-1.828798,-1.388081,-1.084138,-0.932166,-0.932166,-0.962560,-0.962560,-0.886574,-0.810589,-0.658617,-0.506646,-0.491448,-0.385068,-0.415463,-0.476251,-0.567434,-0.628223,-0.597829,-0.552237,-0.506646,-0.506646,-0.506646,-0.430660,-0.415463,-0.369871,-0.430660,-0.491448,-0.506646,-0.537040,-0.506646,-0.521843,-0.491448,-0.476251,-0.445857,-0.400265,-0.415463,-0.461054,-0.430660,-0.461054,-0.506646,-0.491448,-0.476251,-0.537040,-0.445857,-0.476251,-0.461054,-0.385068,-0.369871,-0.369871,-0.354674,-0.354674,-0.415463,-0.400265,-0.415463,-0.445857,-0.430660,-0.415463,-0.339477,-0.339477,-0.324280,-0.309083,-0.339477,-0.324280,-0.324280,-0.354674,-0.369871,-0.339477,-0.293885,-0.233097,-0.202702,-0.141914,-0.187505,-0.126717,-0.157111,-0.172308,-0.126717,-0.141914,-0.126717,-0.065928,-0.050731,0.025255,0.070846,0.162029,0.177226,0.238015,0.283607,0.298804,0.268409,0.298804,0.298804,0.329198,0.374790,0.511564,0.541958,0.633141,0.648338,0.739521,0.800310,0.815507,0.800310,0.845901,0.845901,0.891493,0.906690,0.937084,1.043464,1.043464,1.073859,1.058662,1.028267,0.967479,0.952281,0.876296,0.845901,0.815507,0.724324,0.724324,0.724324,0.709127,0.648338,0.602747,0.526761,0.405184,0.298804,0.207621,0.116438,0.101241,1.000000,123.000000
2.200525,-0.304550,-0.346770,-0.388990,-0.388990,-0.403064,-0.459358,-0.417137,-0.360843,-0.374917,-0.332696,-0.318623,-0.290476,-0.318623,-0.332696,-0.318623,-0.346770,-0.374917,-0.360843,-0.374917,-0.403064,-0.360843,-0.360843,-0.332696,-0.318623,-0.290476,-0.290476,-0.318623,-0.346770,-0.403064,-0.417137,-0.431211,-0.403064,-0.360843,-0.374917,-0.346770,-0.332696,-0.318623,-0.304550,-0.304550,-0.346770,-0.360843,-0.360843,-0.403064,-0.360843,-0.388990,-0.346770,-0.290476,-0.276403,-0.220109,-0.149742,-0.177888,-0.149742,-0.177888,-0.135668,-0.149742,-0.135668,-0.107521,-0.051227,-0.023080,0.075434,0.145801,0.272462,0.258389,0.258389,0.272462,0.272462,0.202095,0.145801,0.131728,0.089507,0.131728,0.188021,0.202095,0.216168,0.159874,0.089507,-0.023080,-0.121595,-0.248256,-0.304550,-0.374917,-0.374917,-0.318623,-0.290476,-0.290476,-0.346770,-0.388990,-0.431211,-0.459358,-0.501578,-0.515651,-0.501578,-0.501578,-0.487504,-0.445284,-0.388990,-0.403064,-0.417137,-0.417137,-0.445284,-0.487504,-0.501578,-0.501578,-0.515651,-0.515651,-0.487504,-0.431211,-0.403064,-0.403064,-0.403064,-0.388990,-0.388990,-0.403064,-0.403064,-0.388990,-0.388990,-0.346770,-0.360843,-0.290476,-0.234182,-0.220109,-0.206035,-0.191962,-0.234182,-0.234182,-0.220109,-0.191962,-0.009007,0.300609,0.821327,1.539073,2.200525,2.974565,3.678238,4.466351,5.170024,5.592228,5.648522,5.184098,4.241176,2.932345,1.426485,-0.149742,-1.444499,-2.274833,-2.584449,-2.485935,-2.148172,-1.768189,-1.458573,-1.205251,-1.134883,-1.050443,-0.951928,-0.797120,-0.600092,-0.501578,-0.403064,-0.346770,-0.332696,-0.374917,-0.403064,-0.445284,-0.459358,-0.445284,-0.431211,-0.360843,-0.346770,-0.304550,-0.290476,-0.304550,-0.346770,-0.332696,-0.374917,-0.374917,-0.374917,-0.374917,-0.374917,-0.346770,-0.304550,-0.276403,-0.290476,-0.304550,-0.346770,-0.346770,-0.346770,-0.332696,-0.332696,-0.332696,-0.346770,-0.276403,-0.262329,-0.262329,-0.276403,-0.248256,-0.290476,-0.304550,-0.360843,-0.360843,-0.360843,-0.346770,-0.304550,-0.276403,-0.248256,-0.191962,-0.220109,-0.276403,-0.248256,-0.262329,-0.290476,-0.290476,-0.304550,-0.262329,-0.234182,-0.191962,-0.121595,-0.107521,-0.121595,-0.079374,-0.065301,-0.093448,-0.107521,-0.107521,-0.065301,-0.065301,-0.009007,0.047287,0.103581,0.145801,0.173948,0.216168,0.230242,0.230242,0.286536,0.286536,0.328756,0.399123,0.441344,0.497637,0.553931,0.638372,0.652445,0.638372,0.652445,0.638372,0.652445,0.708739,0.736886,0.750960,0.835400,0.905768,0.905768,0.933914,0.976135,0.962061,0.905768,0.905768,0.849474,0.821327,0.765033,0.765033,0.750960,0.666519,0.638372,0.638372,0.568005,0.511711,0.413197,0.342829,0.272462,0.216168,0.131728,0.089507,0.089507,1.000000,123.000000
2.155269,-0.269063,-0.269063,-0.269063,-0.269063,-0.283408,-0.355134,-0.355134,-0.340789,-0.340789,-0.340789,-0.283408,-0.283408,-0.269063,-0.240373,-0.269063,-0.297753,-0.340789,-0.326444,-0.326444,-0.355134,-0.340789,-0.383824,-0.369479,-0.254718,-0.226028,-0.269063,-0.240373,-0.254718,-0.283408,-0.297753,-0.312099,-0.340789,-0.312099,-0.312099,-0.297753,-0.312099,-0.254718,-0.240373,-0.269063,-0.297753,-0.269063,-0.326444,-0.297753,-0.297753,-0.297753,-0.297753,-0.197337,-0.182992,-0.125611,-0.068231,-0.025195,-0.025195,-0.025195,-0.010850,-0.053886,-0.053886,-0.039540,0.046530,0.089566,0.189982,0.261708,0.290398,0.319089,0.362124,0.333434,0.290398,0.247363,0.175637,0.132601,0.103911,0.046530,0.118256,0.089566,0.103911,0.075221,0.089566,0.003495,-0.096921,-0.139957,-0.297753,-0.355134,-0.383824,-0.383824,-0.355134,-0.398170,-0.412515,-0.426860,-0.469895,-0.541621,-0.527276,-0.498586,-0.512931,-0.541621,-0.541621,-0.498586,-0.498586,-0.469895,-0.455550,-0.469895,-0.498586,-0.484241,-0.512931,-0.570312,-0.570312,-0.584657,-0.541621,-0.527276,-0.512931,-0.441205,-0.426860,-0.455550,-0.441205,-0.455550,-0.498586,-0.512931,-0.512931,-0.484241,-0.455550,-0.412515,-0.412515,-0.398170,-0.340789,-0.369479,-0.312099,-0.269063,-0.283408,-0.226028,-0.154302,0.046530,0.419505,0.964621,1.624498,2.384792,3.173776,3.934070,4.794779,5.440312,5.827631,5.669834,4.995612,3.819308,2.255686,0.605992,-0.871560,-1.875721,-2.320421,-2.220005,-1.746615,-1.244534,-0.857215,-0.642037,-0.627692,-0.670728,-0.699418,-0.685073,-0.627692,-0.570312,-0.469895,-0.412515,-0.398170,-0.426860,-0.512931,-0.555966,-0.541621,-0.613347,-0.570312,-0.512931,-0.484241,-0.455550,-0.398170,-0.398170,-0.398170,-0.484241,-0.541621,-0.599002,-0.570312,-0.584657,-0.584657,-0.498586,-0.469895,-0.426860,-0.455550,-0.455550,-0.441205,-0.441205,-0.441205,-0.498586,-0.512931,-0.498586,-0.541621,-0.527276,-0.484241,-0.398170,-0.398170,-0.383824,-0.383824,-0.398170,-0.412515,-0.441205,-0.426860,-0.455550,-0.455550,-0.383824,-0.355134,-0.369479,-0.355134,-0.340789,-0.369479,-0.412515,-0.369479,-0.340789,-0.326444,-0.340789,-0.355134,-0.297753,-0.283408,-0.254718,-0.168647,-0.168647,-0.139957,-0.139957,-0.154302,-0.168647,-0.125611,-0.096921,-0.053886,-0.025195,0.032185,0.075221,0.175637,0.189982,0.233018,0.218672,0.290398,0.319089,0.333434,0.376469,0.390814,0.433850,0.534266,0.634682,0.620337,0.692063,0.706408,0.735098,0.735098,0.749443,0.778134,0.792479,0.864205,0.892895,0.964621,0.993311,1.050692,1.079382,1.065037,1.036347,1.007656,0.921585,0.878550,0.864205,0.821169,0.806824,0.763789,0.735098,0.663372,0.577302,0.577302,0.505576,0.390814,0.290398,0.261708,0.189982,0.175637,1.000000,123.000000
2.479616,-0.302465,-0.255043,-0.270851,-0.270851,-0.318272,-0.334080,-0.381501,-0.397309,-0.365694,-0.349887,-0.302465,-0.286658,-0.239236,-0.207621,-0.239236,-0.270851,-0.255043,-0.270851,-0.302465,-0.334080,-0.397309,-0.365694,-0.349887,-0.318272,-0.286658,-0.270851,-0.239236,-0.286658,-0.270851,-0.302465,-0.334080,-0.381501,-0.365694,-0.349887,-0.381501,-0.302465,-0.286658,-0.223429,-0.207621,-0.239236,-0.223429,-0.270851,-0.286658,-0.302465,-0.318272,-0.349887,-0.286658,-0.239236,-0.191814,-0.128585,-0.112778,-0.033741,-0.017934,-0.033741,-0.002127,0.029488,0.061102,0.045295,0.061102,0.140139,0.171753,0.219175,0.282404,0.329826,0.361441,0.377248,0.361441,0.329826,0.282404,0.266597,0.203368,0.171753,0.171753,0.203368,0.187561,0.187561,0.140139,0.045295,-0.049549,-0.112778,-0.176007,-0.270851,-0.349887,-0.349887,-0.334080,-0.365694,-0.397309,-0.413116,-0.460538,-0.523767,-0.507960,-0.571189,-0.539574,-0.507960,-0.523767,-0.476345,-0.476345,-0.476345,-0.507960,-0.460538,-0.539574,-0.571189,-0.618611,-0.586996,-0.586996,-0.555382,-0.476345,-0.492152,-0.444731,-0.397309,-0.413116,-0.444731,-0.428923,-0.460538,-0.492152,-0.476345,-0.507960,-0.476345,-0.460538,-0.413116,-0.349887,-0.302465,-0.318272,-0.286658,-0.255043,-0.255043,-0.286658,-0.239236,-0.128585,0.140139,0.598550,1.246648,2.068627,2.938027,3.823235,4.819093,5.562035,5.909795,5.735915,4.803286,3.269980,1.483757,-0.334080,-1.693506,-2.483870,-2.594521,-2.246760,-1.709313,-1.219287,-0.966371,-0.887334,-0.918949,-0.918949,-0.903142,-0.776683,-0.650225,-0.507960,-0.365694,-0.428923,-0.349887,-0.413116,-0.476345,-0.507960,-0.523767,-0.571189,-0.523767,-0.539574,-0.444731,-0.428923,-0.381501,-0.365694,-0.397309,-0.397309,-0.428923,-0.428923,-0.492152,-0.492152,-0.507960,-0.460538,-0.444731,-0.428923,-0.397309,-0.413116,-0.413116,-0.381501,-0.397309,-0.539574,-0.539574,-0.492152,-0.492152,-0.460538,-0.460538,-0.381501,-0.334080,-0.302465,-0.349887,-0.397309,-0.428923,-0.397309,-0.428923,-0.413116,-0.444731,-0.428923,-0.349887,-0.334080,-0.286658,-0.270851,-0.302465,-0.334080,-0.365694,-0.334080,-0.334080,-0.381501,-0.318272,-0.302465,-0.270851,-0.223429,-0.144392,-0.144392,-0.112778,-0.144392,-0.096970,-0.081163,-0.081163,-0.049549,0.045295,0.092717,0.155946,0.187561,0.250790,0.298211,0.282404,0.314019,0.393055,0.393055,0.424670,0.408862,0.440477,0.519513,0.645972,0.725008,0.788237,0.835659,0.851466,0.898888,0.898888,0.898888,0.930503,0.930503,0.962117,1.025346,1.088575,1.151805,1.167612,1.120190,1.088575,1.041154,1.009539,0.962117,0.851466,0.788237,0.756623,0.772430,0.725008,0.693393,0.645972,0.566935,0.519513,0.408862,0.314019,0.219175,0.108524,0.061102,0.029488,1.000000,123.000000
2.118003,-0.456681,-0.442378,-0.456681,-0.385162,-0.385162,-0.342251,-0.327947,-0.342251,-0.356555,-0.399466,-0.428074,-0.442378,-0.456681,-0.456681,-0.413770,-0.342251,-0.370859,-0.342251,-0.356555,-0.342251,-0.370859,-0.442378,-0.413770,-0.456681,-0.428074,-0.428074,-0.413770,-0.428074,-0.385162,-0.342251,-0.313643,-0.327947,-0.342251,-0.399466,-0.399466,-0.413770,-0.442378,-0.442378,-0.428074,-0.370859,-0.399466,-0.313643,-0.285036,-0.285036,-0.270732,-0.256428,-0.270732,-0.256428,-0.242124,-0.227821,-0.170605,-0.113390,-0.056175,0.015344,-0.013264,0.001040,0.001040,0.043952,0.086863,0.172686,0.201293,0.229901,0.258509,0.315724,0.287116,0.258509,0.258509,0.215597,0.172686,0.172686,0.144078,0.086863,0.072559,0.015344,-0.070479,-0.113390,-0.184909,-0.227821,-0.285036,-0.299340,-0.327947,-0.370859,-0.399466,-0.456681,-0.470985,-0.499593,-0.528200,-0.485289,-0.413770,-0.413770,-0.442378,-0.428074,-0.456681,-0.470985,-0.513897,-0.556808,-0.571112,-0.556808,-0.542504,-0.528200,-0.428074,-0.385162,-0.428074,-0.442378,-0.413770,-0.413770,-0.470985,-0.470985,-0.470985,-0.442378,-0.442378,-0.413770,-0.356555,-0.327947,-0.356555,-0.370859,-0.327947,-0.342251,-0.327947,-0.370859,-0.327947,-0.327947,-0.327947,-0.256428,-0.213517,-0.127694,-0.084783,0.001040,0.229901,0.616104,1.202559,1.903446,2.590028,3.448256,4.263573,5.093193,5.608130,5.722560,5.322054,4.378003,3.033446,1.431420,-0.199213,-1.558074,-2.373391,-2.673770,-2.516429,-2.101618,-1.586682,-1.229087,-1.000226,-0.885795,-0.857188,-0.814276,-0.814276,-0.656935,-0.542504,-0.470985,-0.428074,-0.356555,-0.370859,-0.370859,-0.370859,-0.413770,-0.385162,-0.456681,-0.428074,-0.442378,-0.442378,-0.428074,-0.428074,-0.370859,-0.299340,-0.299340,-0.285036,-0.327947,-0.285036,-0.327947,-0.327947,-0.356555,-0.356555,-0.370859,-0.342251,-0.313643,-0.313643,-0.327947,-0.327947,-0.299340,-0.285036,-0.313643,-0.342251,-0.342251,-0.370859,-0.399466,-0.356555,-0.356555,-0.313643,-0.285036,-0.256428,-0.270732,-0.256428,-0.285036,-0.342251,-0.342251,-0.385162,-0.370859,-0.299340,-0.270732,-0.227821,-0.227821,-0.184909,-0.156302,-0.199213,-0.227821,-0.213517,-0.213517,-0.256428,-0.242124,-0.141998,-0.113390,-0.056175,-0.013264,0.001040,0.058255,0.058255,0.029648,0.029648,0.058255,0.058255,0.115471,0.129774,0.201293,0.258509,0.344331,0.358635,0.415850,0.444458,0.401547,0.401547,0.444458,0.501673,0.530281,0.573192,0.616104,0.687623,0.759142,0.773445,0.802053,0.816357,0.830661,0.802053,0.830661,0.830661,0.830661,0.916483,0.959395,0.959395,1.016610,1.030914,1.016610,0.945091,0.930787,0.873572,0.816357,0.773445,0.716230,0.673319,0.659015,0.630407,0.587496,0.587496,0.501673,0.444458,0.330028,1.000000,123.000000
2.042103,-0.323652,-0.323652,-0.338077,-0.309227,-0.381353,-0.424629,-0.424629,-0.453480,-0.424629,-0.424629,-0.410204,-0.381353,-0.338077,-0.280376,-0.309227,-0.338077,-0.366928,-0.352503,-0.381353,-0.381353,-0.395779,-0.395779,-0.381353,-0.381353,-0.323652,-0.294801,-0.323652,-0.309227,-0.338077,-0.338077,-0.395779,-0.424629,-0.410204,-0.439055,-0.381353,-0.352503,-0.309227,-0.352503,-0.294801,-0.309227,-0.352503,-0.352503,-0.381353,-0.410204,-0.410204,-0.381353,-0.352503,-0.265951,-0.251525,-0.179399,-0.107272,-0.078421,-0.035145,-0.049571,-0.049571,-0.092847,-0.107272,-0.078421,0.022556,0.094683,0.195660,0.224511,0.267787,0.224511,0.195660,0.166809,0.080257,0.080257,0.051407,0.036981,0.036981,0.080257,0.065832,0.080257,0.008131,-0.035145,-0.121697,-0.222675,-0.251525,-0.366928,-0.424629,-0.424629,-0.453480,-0.439055,-0.467905,-0.439055,-0.496756,-0.439055,-0.511181,-0.511181,-0.554457,-0.554457,-0.554457,-0.554457,-0.540032,-0.525607,-0.496756,-0.467905,-0.453480,-0.453480,-0.496756,-0.525607,-0.568883,-0.554457,-0.568883,-0.525607,-0.525607,-0.467905,-0.467905,-0.453480,-0.467905,-0.453480,-0.467905,-0.482331,-0.467905,-0.482331,-0.482331,-0.482331,-0.395779,-0.366928,-0.323652,-0.280376,-0.222675,-0.179399,-0.208249,-0.193824,-0.164973,-0.006295,0.267787,0.743823,1.349687,2.099804,2.835496,3.657741,4.407858,5.201251,5.691713,5.864817,5.432057,4.494410,3.109578,1.566067,-0.092847,-1.347851,-2.097968,-2.271072,-1.968140,-1.477679,-1.001643,-0.713136,-0.554457,-0.583308,-0.641009,-0.684285,-0.669860,-0.583308,-0.482331,-0.366928,-0.323652,-0.323652,-0.338077,-0.395779,-0.424629,-0.482331,-0.482331,-0.511181,-0.439055,-0.395779,-0.366928,-0.309227,-0.338077,-0.338077,-0.366928,-0.381353,-0.395779,-0.439055,-0.410204,-0.424629,-0.395779,-0.381353,-0.352503,-0.323652,-0.338077,-0.381353,-0.366928,-0.366928,-0.410204,-0.424629,-0.439055,-0.424629,-0.381353,-0.366928,-0.352503,-0.323652,-0.338077,-0.323652,-0.352503,-0.395779,-0.395779,-0.439055,-0.395779,-0.410204,-0.352503,-0.323652,-0.309227,-0.280376,-0.280376,-0.309227,-0.309227,-0.265951,-0.309227,-0.294801,-0.294801,-0.265951,-0.237100,-0.179399,-0.150548,-0.193824,-0.092847,-0.092847,-0.092847,-0.107272,-0.107272,-0.107272,-0.078421,-0.020720,0.008131,0.065832,0.109108,0.166809,0.238936,0.267787,0.238936,0.296637,0.311063,0.325488,0.383189,0.412040,0.484167,0.556293,0.599569,0.686121,0.772673,0.787099,0.844800,0.844800,0.815949,0.873651,0.859225,0.888076,0.945777,1.017904,1.046755,1.061180,1.032329,1.046755,1.017904,0.916927,0.888076,0.844800,0.787099,0.729397,0.671696,0.642845,0.613995,0.556293,0.484167,0.397615,0.311063,0.224511,0.166809,0.080257,0.051407,0.008131,1.000000,123.000000
2.275054,-0.321655,-0.336840,-0.382397,-0.382397,-0.397582,-0.427953,-0.397582,-0.412768,-0.352026,-0.336840,-0.306470,-0.306470,-0.291284,-0.321655,-0.412768,-0.397582,-0.412768,-0.412768,-0.367211,-0.352026,-0.382397,-0.321655,-0.306470,-0.321655,-0.336840,-0.336840,-0.352026,-0.412768,-0.427953,-0.443139,-0.412768,-0.382397,-0.306470,-0.352026,-0.291284,-0.260913,-0.291284,-0.306470,-0.367211,-0.382397,-0.382397,-0.397582,-0.382397,-0.352026,-0.321655,-0.276099,-0.184986,-0.215357,-0.154615,-0.139430,-0.078688,-0.093874,-0.078688,-0.048317,-0.078688,-0.048317,0.042795,0.103537,0.164279,0.225020,0.255391,0.316133,0.255391,0.225020,0.240206,0.194650,0.164279,0.118722,0.057981,0.103537,0.164279,0.133908,0.164279,0.103537,0.012424,0.012424,-0.093874,-0.184986,-0.245728,-0.306470,-0.321655,-0.352026,-0.352026,-0.352026,-0.382397,-0.397582,-0.488695,-0.503880,-0.549437,-0.610178,-0.594993,-0.549437,-0.503880,-0.503880,-0.488695,-0.473509,-0.488695,-0.534251,-0.549437,-0.579807,-0.564622,-0.579807,-0.549437,-0.579807,-0.488695,-0.519066,-0.503880,-0.427953,-0.412768,-0.443139,-0.443139,-0.488695,-0.473509,-0.503880,-0.458324,-0.458324,-0.412768,-0.352026,-0.336840,-0.336840,-0.291284,-0.291284,-0.276099,-0.276099,-0.306470,-0.276099,-0.139430,-0.063503,0.255391,0.710954,1.348742,2.062458,2.700246,3.413961,4.112491,4.811021,5.448809,5.676591,5.372882,4.583240,3.398776,1.865047,0.376875,-1.005000,-1.885755,-2.371688,-2.402059,-2.083165,-1.657973,-1.263152,-1.111298,-0.959443,-0.913887,-0.883516,-0.792403,-0.701291,-0.549437,-0.488695,-0.443139,-0.382397,-0.427953,-0.473509,-0.458324,-0.488695,-0.488695,-0.473509,-0.382397,-0.336840,-0.352026,-0.397582,-0.367211,-0.382397,-0.443139,-0.458324,-0.488695,-0.503880,-0.397582,-0.336840,-0.306470,-0.321655,-0.321655,-0.321655,-0.427953,-0.412768,-0.458324,-0.443139,-0.443139,-0.382397,-0.336840,-0.336840,-0.352026,-0.336840,-0.306470,-0.306470,-0.321655,-0.321655,-0.352026,-0.397582,-0.427953,-0.382397,-0.306470,-0.336840,-0.291284,-0.245728,-0.276099,-0.260913,-0.352026,-0.367211,-0.412768,-0.382397,-0.367211,-0.352026,-0.245728,-0.184986,-0.154615,-0.124244,-0.154615,-0.139430,-0.154615,-0.169801,-0.139430,-0.169801,-0.109059,-0.139430,-0.078688,-0.002761,0.057981,0.088352,0.149093,0.164279,0.118722,0.149093,0.133908,0.225020,0.255391,0.285762,0.361689,0.422431,0.498358,0.559100,0.604656,0.635027,0.650213,0.665398,0.635027,0.650213,0.695769,0.741325,0.802067,0.893180,0.969107,0.984292,0.984292,0.999478,1.014663,0.999478,1.014663,0.893180,0.923550,0.923550,0.938736,0.969107,0.969107,0.923550,0.817252,0.741325,0.650213,0.604656,0.528729,0.467987,0.422431,0.346504,0.361689,0.346504,1.000000,123.000000
2.127579,-0.416330,-0.416330,-0.386749,-0.342379,-0.371959,-0.386749,-0.445910,-0.475490,-0.475490,-0.490280,-0.490280,-0.445910,-0.460700,-0.401540,-0.401540,-0.371959,-0.357169,-0.386749,-0.431120,-0.475490,-0.416330,-0.431120,-0.475490,-0.431120,-0.431120,-0.386749,-0.357169,-0.327589,-0.386749,-0.357169,-0.431120,-0.475490,-0.445910,-0.475490,-0.475490,-0.416330,-0.431120,-0.342379,-0.327589,-0.283218,-0.342379,-0.342379,-0.371959,-0.416330,-0.401540,-0.386749,-0.371959,-0.312799,-0.268428,-0.194477,-0.135317,-0.090946,-0.061366,-0.061366,-0.061366,-0.105736,-0.150107,-0.164897,-0.090946,-0.002205,0.116116,0.204857,0.323179,0.337969,0.308388,0.234438,0.204857,0.145697,0.071746,0.042165,0.027375,0.071746,0.086536,0.071746,0.086536,0.042165,-0.031785,-0.150107,-0.283218,-0.327589,-0.386749,-0.475490,-0.490280,-0.490280,-0.505071,-0.445910,-0.431120,-0.431120,-0.431120,-0.460700,-0.475490,-0.519861,-0.593812,-0.564231,-0.579021,-0.519861,-0.564231,-0.549441,-0.445910,-0.460700,-0.460700,-0.460700,-0.505071,-0.549441,-0.564231,-0.564231,-0.549441,-0.519861,-0.505071,-0.460700,-0.431120,-0.416330,-0.401540,-0.416330,-0.431120,-0.431120,-0.460700,-0.445910,-0.445910,-0.431120,-0.357169,-0.327589,-0.253638,-0.238848,-0.253638,-0.194477,-0.179687,-0.179687,-0.002205,0.367549,0.929575,1.595133,2.364221,3.148100,4.050300,4.878549,5.558897,5.795539,5.544106,4.730647,3.503064,1.890936,0.219647,-1.155838,-2.131989,-2.516533,-2.442582,-2.028458,-1.584753,-1.229789,-0.993146,-0.860035,-0.830454,-0.800874,-0.652972,-0.549441,-0.460700,-0.357169,-0.312799,-0.298008,-0.357169,-0.431120,-0.416330,-0.445910,-0.460700,-0.460700,-0.460700,-0.431120,-0.401540,-0.357169,-0.371959,-0.386749,-0.386749,-0.371959,-0.371959,-0.386749,-0.386749,-0.431120,-0.431120,-0.401540,-0.371959,-0.283218,-0.253638,-0.298008,-0.312799,-0.298008,-0.312799,-0.327589,-0.342379,-0.371959,-0.357169,-0.327589,-0.298008,-0.298008,-0.283218,-0.268428,-0.238848,-0.209267,-0.238848,-0.268428,-0.253638,-0.327589,-0.312799,-0.342379,-0.283218,-0.224058,-0.179687,-0.120526,-0.105736,-0.135317,-0.135317,-0.150107,-0.150107,-0.194477,-0.150107,-0.120526,-0.076156,-0.046576,-0.002205,0.071746,0.056956,0.071746,0.086536,0.042165,0.056956,0.101326,0.116116,0.175277,0.249228,0.308388,0.323179,0.367549,0.382339,0.456290,0.485870,0.500660,0.485870,0.574611,0.559821,0.618982,0.633772,0.737303,0.796464,0.796464,0.840834,0.855624,0.855624,0.870415,0.855624,0.885205,0.899995,0.959156,1.003526,1.018316,1.003526,1.033106,0.959156,0.973946,0.885205,0.899995,0.781674,0.737303,0.678142,0.633772,0.589401,0.530241,0.545031,0.515451,0.441500,0.397129,0.308388,0.234438,0.145697,0.071746,1.000000,123.000000
1.959227,-0.479185,-0.450156,-0.435642,-0.392099,-0.319527,-0.348556,-0.348556,-0.334041,-0.348556,-0.392099,-0.464671,-0.450156,-0.464671,-0.450156,-0.421128,-0.392099,-0.305013,-0.319527,-0.275984,-0.348556,-0.319527,-0.377584,-0.392099,-0.406613,-0.421128,-0.406613,-0.377584,-0.348556,-0.319527,-0.319527,-0.290498,-0.275984,-0.348556,-0.348556,-0.348556,-0.392099,-0.406613,-0.377584,-0.392099,-0.363070,-0.290498,-0.275984,-0.246955,-0.319527,-0.305013,-0.305013,-0.319527,-0.290498,-0.261470,-0.217927,-0.116326,-0.058269,-0.014725,0.057846,0.043332,0.043332,0.014303,-0.000211,0.043332,0.086875,0.173961,0.217504,0.246533,0.290076,0.246533,0.275562,0.232019,0.173961,0.130418,0.101389,0.086875,-0.000211,-0.000211,-0.029240,0.014303,-0.014725,-0.058269,-0.087297,-0.159869,-0.246955,-0.305013,-0.363070,-0.421128,-0.450156,-0.522728,-0.493699,-0.450156,-0.493699,-0.522728,-0.450156,-0.435642,-0.464671,-0.479185,-0.493699,-0.479185,-0.508214,-0.522728,-0.493699,-0.479185,-0.493699,-0.435642,-0.435642,-0.435642,-0.479185,-0.479185,-0.508214,-0.537242,-0.522728,-0.522728,-0.537242,-0.508214,-0.450156,-0.479185,-0.377584,-0.406613,-0.363070,-0.348556,-0.392099,-0.377584,-0.406613,-0.406613,-0.348556,-0.290498,-0.261470,-0.217927,-0.116326,-0.043754,0.159447,0.493277,1.015794,1.668940,2.293058,2.989747,3.715465,4.470212,5.166901,5.631360,5.703932,5.312045,4.397640,3.207462,1.712483,0.188476,-1.117817,-1.988678,-2.337023,-2.133822,-1.669362,-1.132331,-0.769472,-0.580786,-0.551757,-0.638843,-0.725929,-0.711415,-0.667872,-0.609814,-0.522728,-0.450156,-0.392099,-0.363070,-0.363070,-0.377584,-0.406613,-0.421128,-0.450156,-0.435642,-0.508214,-0.435642,-0.493699,-0.464671,-0.377584,-0.363070,-0.348556,-0.348556,-0.348556,-0.363070,-0.392099,-0.435642,-0.464671,-0.479185,-0.464671,-0.421128,-0.406613,-0.392099,-0.392099,-0.392099,-0.406613,-0.392099,-0.421128,-0.450156,-0.435642,-0.450156,-0.450156,-0.406613,-0.392099,-0.334041,-0.319527,-0.363070,-0.334041,-0.348556,-0.392099,-0.377584,-0.392099,-0.377584,-0.363070,-0.305013,-0.305013,-0.290498,-0.261470,-0.275984,-0.261470,-0.275984,-0.319527,-0.334041,-0.290498,-0.305013,-0.305013,-0.261470,-0.188898,-0.159869,-0.101812,-0.101812,-0.043754,-0.043754,-0.087297,-0.087297,-0.072783,-0.058269,-0.014725,-0.000211,0.086875,0.188476,0.188476,0.246533,0.290076,0.333619,0.319105,0.319105,0.333619,0.348134,0.391677,0.493277,0.551335,0.609392,0.667449,0.638421,0.696478,0.710993,0.725507,0.740021,0.769050,0.769050,0.827107,0.870650,0.943222,0.972251,1.001280,1.001280,0.986765,0.972251,0.943222,0.914194,0.827107,0.783564,0.725507,0.710993,0.681964,0.623906,0.565849,0.493277,0.406191,0.362648,0.275562,1.000000,123.000000
2.177955,-0.483638,-0.515324,-0.467795,-0.499481,-0.420267,-0.388581,-0.372738,-0.388581,-0.388581,-0.404424,-0.451952,-0.499481,-0.515324,-0.451952,-0.467795,-0.436109,-0.388581,-0.388581,-0.372738,-0.388581,-0.372738,-0.356895,-0.388581,-0.451952,-0.404424,-0.451952,-0.483638,-0.467795,-0.420267,-0.420267,-0.341053,-0.356895,-0.277681,-0.325210,-0.372738,-0.372738,-0.404424,-0.436109,-0.420267,-0.372738,-0.356895,-0.309367,-0.277681,-0.277681,-0.309367,-0.293524,-0.277681,-0.261838,-0.245996,-0.245996,-0.198467,-0.135096,-0.040039,0.007489,0.055018,0.007489,0.023332,0.023332,0.007489,0.023332,0.102546,0.197603,0.260974,0.292660,0.324346,0.292660,0.276817,0.229289,0.150075,0.086703,0.086703,0.102546,0.086703,0.070861,0.039175,0.023332,-0.008353,-0.119253,-0.198467,-0.277681,-0.341053,-0.420267,-0.451952,-0.483638,-0.499481,-0.547009,-0.578695,-0.594538,-0.467795,-0.451952,-0.436109,-0.451952,-0.451952,-0.483638,-0.578695,-0.547009,-0.531166,-0.499481,-0.483638,-0.483638,-0.451952,-0.499481,-0.420267,-0.404424,-0.420267,-0.451952,-0.420267,-0.499481,-0.483638,-0.483638,-0.467795,-0.451952,-0.404424,-0.420267,-0.341053,-0.388581,-0.341053,-0.325210,-0.388581,-0.356895,-0.388581,-0.372738,-0.356895,-0.277681,-0.230153,-0.198467,-0.071725,0.070861,0.403560,0.831316,1.417500,2.098741,2.827510,3.508751,4.427634,5.219775,5.679216,5.774273,5.251460,4.189992,2.811667,1.195700,-0.309367,-1.560949,-2.289719,-2.495675,-2.384775,-1.877805,-1.465892,-1.133193,-0.943079,-0.848023,-0.784651,-0.721280,-0.642066,-0.515324,-0.451952,-0.404424,-0.372738,-0.341053,-0.372738,-0.436109,-0.372738,-0.356895,-0.341053,-0.372738,-0.404424,-0.436109,-0.420267,-0.436109,-0.451952,-0.420267,-0.388581,-0.356895,-0.309367,-0.293524,-0.325210,-0.325210,-0.341053,-0.372738,-0.372738,-0.388581,-0.388581,-0.388581,-0.356895,-0.309367,-0.309367,-0.309367,-0.325210,-0.388581,-0.356895,-0.372738,-0.388581,-0.356895,-0.372738,-0.372738,-0.325210,-0.309367,-0.293524,-0.277681,-0.261838,-0.277681,-0.325210,-0.356895,-0.356895,-0.341053,-0.341053,-0.325210,-0.293524,-0.245996,-0.230153,-0.182624,-0.198467,-0.182624,-0.166782,-0.150939,-0.166782,-0.150939,-0.166782,-0.166782,-0.087568,-0.008353,0.086703,0.086703,0.150075,0.134232,0.165917,0.150075,0.181760,0.213446,0.292660,0.308503,0.403560,0.435245,0.514459,0.561988,0.561988,0.561988,0.577831,0.609516,0.609516,0.641202,0.672887,0.720416,0.799630,0.847158,0.926372,0.942215,0.942215,0.973901,0.958058,0.942215,0.973901,0.910530,0.894687,0.926372,0.942215,0.894687,0.910530,0.863001,0.783787,0.704573,0.657045,0.577831,0.530302,0.451088,0.387717,0.371874,0.308503,0.308503,0.260974,0.165917,0.070861,0.023332,1.000000,123.000000
1.970929,-0.363276,-0.348119,-0.393591,-0.378433,-0.408748,-0.469377,-0.439062,-0.423905,-0.423905,-0.393591,-0.378433,-0.348119,-0.363276,-0.393591,-0.408748,-0.393591,-0.423905,-0.454219,-0.423905,-0.423905,-0.378433,-0.393591,-0.348119,-0.363276,-0.332962,-0.348119,-0.393591,-0.439062,-0.454219,-0.439062,-0.393591,-0.423905,-0.378433,-0.332962,-0.317805,-0.317805,-0.302648,-0.332962,-0.348119,-0.363276,-0.378433,-0.378433,-0.423905,-0.363276,-0.363276,-0.272333,-0.287490,-0.272333,-0.211704,-0.226862,-0.211704,-0.151076,-0.166233,-0.105604,-0.105604,-0.090447,-0.014661,0.000496,0.061125,0.061125,0.106596,0.182382,0.167225,0.197539,0.212697,0.167225,0.106596,0.106596,0.076282,0.091439,0.152068,0.061125,0.061125,0.136911,0.106596,0.045968,0.000496,-0.090447,-0.196547,-0.287490,-0.348119,-0.348119,-0.332962,-0.363276,-0.302648,-0.363276,-0.423905,-0.469377,-0.499691,-0.530005,-0.530005,-0.514848,-0.469377,-0.469377,-0.454219,-0.408748,-0.439062,-0.439062,-0.484534,-0.484534,-0.484534,-0.545162,-0.545162,-0.545162,-0.484534,-0.423905,-0.393591,-0.393591,-0.393591,-0.439062,-0.454219,-0.439062,-0.454219,-0.423905,-0.423905,-0.408748,-0.393591,-0.348119,-0.287490,-0.287490,-0.211704,-0.272333,-0.287490,-0.272333,-0.257176,-0.272333,-0.166233,-0.075290,0.303640,0.773512,1.379799,2.092187,2.804574,3.562433,4.335450,5.062994,5.593496,5.699596,5.275195,4.335450,3.016775,1.485900,-0.044975,-1.363650,-2.197295,-2.561067,-2.394338,-2.076038,-1.636479,-1.287864,-1.075664,-0.984721,-0.954406,-0.848306,-0.742206,-0.590634,-0.484534,-0.378433,-0.317805,-0.317805,-0.348119,-0.439062,-0.454219,-0.454219,-0.454219,-0.439062,-0.378433,-0.348119,-0.348119,-0.317805,-0.332962,-0.393591,-0.378433,-0.408748,-0.408748,-0.393591,-0.423905,-0.378433,-0.348119,-0.302648,-0.302648,-0.287490,-0.317805,-0.363276,-0.439062,-0.408748,-0.378433,-0.348119,-0.378433,-0.332962,-0.287490,-0.302648,-0.317805,-0.272333,-0.302648,-0.363276,-0.363276,-0.363276,-0.378433,-0.317805,-0.317805,-0.287490,-0.257176,-0.226862,-0.257176,-0.242019,-0.302648,-0.332962,-0.363276,-0.332962,-0.317805,-0.272333,-0.226862,-0.181390,-0.181390,-0.105604,-0.166233,-0.151076,-0.105604,-0.151076,-0.181390,-0.105604,-0.090447,-0.075290,-0.029818,0.015653,0.106596,0.136911,0.152068,0.136911,0.136911,0.136911,0.167225,0.197539,0.227854,0.288482,0.318797,0.394583,0.470369,0.500683,0.546155,0.606783,0.652255,0.667412,0.682569,0.697726,0.697726,0.728041,0.788669,0.803827,0.894770,0.955398,0.970556,0.985713,1.000870,0.925084,0.940241,0.925084,0.940241,0.925084,0.940241,0.925084,0.985713,0.909927,0.864455,0.849298,0.758355,0.667412,0.591626,0.500683,0.470369,0.424897,0.409740,0.394583,1.000000,123.000000
2.052634,-0.397783,-0.366960,-0.336137,-0.289903,-0.289903,-0.259080,-0.289903,-0.274491,-0.274491,-0.336137,-0.366960,-0.413194,-0.413194,-0.413194,-0.366960,-0.336137,-0.289903,-0.289903,-0.274491,-0.320726,-0.289903,-0.366960,-0.336137,-0.382371,-0.428606,-0.413194,-0.397783,-0.366960,-0.289903,-0.274491,-0.305314,-0.289903,-0.320726,-0.366960,-0.382371,-0.382371,-0.382371,-0.382371,-0.320726,-0.289903,-0.289903,-0.259080,-0.243669,-0.289903,-0.320726,-0.289903,-0.289903,-0.274491,-0.305314,-0.289903,-0.212846,-0.104966,-0.089554,0.018326,0.049148,0.018326,0.002914,-0.027909,-0.027909,-0.058732,0.033737,0.095383,0.218674,0.295731,0.326554,0.326554,0.295731,0.203263,0.157028,0.095383,0.079971,0.018326,0.018326,-0.012497,0.018326,0.002914,-0.089554,-0.074143,-0.043320,-0.151200,-0.243669,-0.305314,-0.428606,-0.490251,-0.505663,-0.505663,-0.490251,-0.474840,-0.444017,-0.428606,-0.459429,-0.444017,-0.474840,-0.474840,-0.505663,-0.536486,-0.567309,-0.551897,-0.536486,-0.490251,-0.474840,-0.459429,-0.474840,-0.490251,-0.474840,-0.536486,-0.536486,-0.536486,-0.536486,-0.536486,-0.505663,-0.444017,-0.459429,-0.428606,-0.382371,-0.382371,-0.413194,-0.413194,-0.459429,-0.444017,-0.459429,-0.428606,-0.397783,-0.351549,-0.320726,-0.212846,-0.166612,0.033737,0.249497,0.696428,1.328297,2.006399,2.730736,3.516719,4.364347,5.104096,5.689730,5.874667,5.473970,4.518462,3.131433,1.513234,-0.151200,-1.507405,-2.262565,-2.416680,-2.123862,-1.538228,-0.983417,-0.644366,-0.551897,-0.521074,-0.598131,-0.659777,-0.598131,-0.598131,-0.536486,-0.474840,-0.428606,-0.382371,-0.397783,-0.382371,-0.428606,-0.459429,-0.444017,-0.444017,-0.459429,-0.474840,-0.490251,-0.490251,-0.505663,-0.428606,-0.382371,-0.351549,-0.336137,-0.413194,-0.428606,-0.397783,-0.459429,-0.444017,-0.505663,-0.459429,-0.474840,-0.444017,-0.444017,-0.444017,-0.413194,-0.382371,-0.366960,-0.382371,-0.428606,-0.459429,-0.459429,-0.444017,-0.444017,-0.397783,-0.351549,-0.382371,-0.351549,-0.289903,-0.320726,-0.351549,-0.459429,-0.428606,-0.397783,-0.366960,-0.336137,-0.336137,-0.320726,-0.243669,-0.274491,-0.243669,-0.243669,-0.243669,-0.289903,-0.305314,-0.228257,-0.212846,-0.166612,-0.104966,-0.058732,0.002914,0.033737,0.049148,0.049148,0.079971,0.079971,0.079971,0.126206,0.126206,0.249497,0.326554,0.419023,0.480668,0.511491,0.557725,0.557725,0.573137,0.526903,0.603960,0.619371,0.681017,0.711840,0.773485,0.850543,0.927600,0.973834,0.989245,1.020068,0.989245,0.973834,0.958422,0.943011,0.958422,0.943011,0.958422,0.927600,0.958422,0.835131,0.804308,0.711840,0.634783,0.526903,0.526903,0.419023,0.341966,0.280320,0.264908,0.234086,0.187851,0.172440,0.126206,0.018326,0.018326,1.000000,123.000000
2.473495,-0.313372,-0.263606,-0.329960,-0.247018,-0.263606,-0.263606,-0.313372,-0.346549,-0.379726,-0.379726,-0.379726,-0.363137,-0.396314,-0.329960,-0.280195,-0.263606,-0.313372,-0.346549,-0.313372,-0.329960,-0.329960,-0.363137,-0.429491,-0.379726,-0.329960,-0.313372,-0.329960,-0.263606,-0.247018,-0.263606,-0.280195,-0.346549,-0.363137,-0.379726,-0.379726,-0.363137,-0.313372,-0.313372,-0.263606,-0.247018,-0.230429,-0.247018,-0.230429,-0.313372,-0.346549,-0.363137,-0.396314,-0.429491,-0.329960,-0.296783,-0.213841,-0.213841,-0.230429,-0.213841,-0.147487,-0.130898,-0.081133,-0.064544,-0.047956,-0.031367,-0.031367,0.018398,0.051575,0.101341,0.134518,0.217460,0.316991,0.200872,0.184283,0.134518,0.101341,0.018398,0.001810,0.001810,0.034987,0.068164,0.034987,0.084752,0.001810,-0.081133,-0.147487,-0.230429,-0.313372,-0.363137,-0.396314,-0.396314,-0.412903,-0.379726,-0.412903,-0.412903,-0.412903,-0.479257,-0.495845,-0.512434,-0.562199,-0.562199,-0.562199,-0.512434,-0.446080,-0.429491,-0.412903,-0.379726,-0.396314,-0.479257,-0.512434,-0.495845,-0.512434,-0.529022,-0.462668,-0.429491,-0.396314,-0.379726,-0.412903,-0.412903,-0.396314,-0.429491,-0.379726,-0.495845,-0.429491,-0.429491,-0.379726,-0.346549,-0.263606,-0.313372,-0.230429,-0.213841,-0.130898,-0.164075,0.001810,0.283814,0.698526,1.395243,2.125137,2.937973,3.783986,4.696353,5.459424,5.890725,5.724840,4.978358,3.651278,2.091960,0.316991,-1.159385,-2.171283,-2.585995,-2.519641,-2.071752,-1.590686,-1.192562,-1.043265,-0.943734,-0.943734,-0.877380,-0.860792,-0.761261,-0.611965,-0.462668,-0.429491,-0.346549,-0.313372,-0.329960,-0.379726,-0.462668,-0.462668,-0.429491,-0.495845,-0.429491,-0.429491,-0.363137,-0.363137,-0.313372,-0.329960,-0.280195,-0.313372,-0.379726,-0.396314,-0.379726,-0.396314,-0.429491,-0.412903,-0.396314,-0.346549,-0.363137,-0.313372,-0.280195,-0.263606,-0.296783,-0.379726,-0.379726,-0.396314,-0.446080,-0.363137,-0.313372,-0.296783,-0.296783,-0.296783,-0.329960,-0.329960,-0.363137,-0.313372,-0.363137,-0.396314,-0.446080,-0.313372,-0.346549,-0.329960,-0.247018,-0.230429,-0.213841,-0.230429,-0.230429,-0.263606,-0.296783,-0.296783,-0.230429,-0.263606,-0.197252,-0.147487,-0.097721,-0.047956,0.001810,-0.014779,-0.014779,-0.031367,-0.014779,-0.014779,-0.014779,0.068164,0.117929,0.117929,0.267226,0.300403,0.316991,0.366757,0.416522,0.383345,0.366757,0.399933,0.433110,0.449699,0.565818,0.665349,0.731703,0.814646,0.814646,0.831234,0.864411,0.881000,0.814646,0.864411,0.864411,0.914177,0.997119,1.030296,1.063473,1.080062,1.063473,1.046885,0.997119,0.947354,0.881000,0.798057,0.764880,0.715115,0.698526,0.681938,0.648761,0.582407,0.516053,0.416522,0.383345,0.234049,0.167695,1.000000,123.000000
2.270917,-0.341802,-0.326251,-0.310699,-0.326251,-0.357354,-0.326251,-0.388458,-0.404010,-0.435114,-0.435114,-0.450666,-0.466218,-0.419562,-0.419562,-0.341802,-0.326251,-0.326251,-0.372906,-0.357354,-0.404010,-0.404010,-0.419562,-0.388458,-0.388458,-0.372906,-0.326251,-0.326251,-0.326251,-0.295147,-0.372906,-0.372906,-0.372906,-0.388458,-0.357354,-0.357354,-0.341802,-0.310699,-0.295147,-0.295147,-0.279595,-0.326251,-0.310699,-0.357354,-0.372906,-0.357354,-0.388458,-0.357354,-0.341802,-0.295147,-0.248491,-0.217387,-0.232939,-0.186283,-0.155180,-0.170732,-0.124076,-0.092972,-0.092972,-0.061868,-0.061868,0.015891,0.062547,0.140306,0.202514,0.264722,0.264722,0.264722,0.249170,0.186962,0.062547,0.031443,0.062547,0.031443,0.062547,0.093651,0.109203,0.140306,0.093651,0.046995,-0.030764,-0.139628,-0.217387,-0.279595,-0.310699,-0.372906,-0.357354,-0.279595,-0.310699,-0.341802,-0.419562,-0.450666,-0.497321,-0.512873,-0.512873,-0.497321,-0.497321,-0.543977,-0.450666,-0.419562,-0.419562,-0.435114,-0.466218,-0.512873,-0.543977,-0.497321,-0.528425,-0.481770,-0.450666,-0.419562,-0.388458,-0.326251,-0.326251,-0.326251,-0.388458,-0.419562,-0.419562,-0.435114,-0.450666,-0.372906,-0.341802,-0.310699,-0.248491,-0.186283,-0.186283,-0.186283,-0.186283,-0.217387,-0.170732,0.078099,0.435793,1.026765,1.773256,2.550851,3.390654,4.261560,5.116915,5.738991,5.941165,5.521264,4.541494,3.064064,1.275595,-0.481770,-1.850337,-2.581276,-2.752347,-2.456861,-1.959200,-1.461539,-1.150501,-0.932775,-0.886119,-0.823911,-0.730600,-0.621737,-0.481770,-0.357354,-0.326251,-0.295147,-0.295147,-0.310699,-0.341802,-0.372906,-0.419562,-0.419562,-0.419562,-0.404010,-0.326251,-0.326251,-0.310699,-0.264043,-0.248491,-0.248491,-0.248491,-0.341802,-0.372906,-0.404010,-0.388458,-0.357354,-0.341802,-0.295147,-0.295147,-0.264043,-0.295147,-0.279595,-0.248491,-0.326251,-0.388458,-0.357354,-0.372906,-0.404010,-0.341802,-0.279595,-0.264043,-0.295147,-0.295147,-0.341802,-0.326251,-0.372906,-0.357354,-0.419562,-0.388458,-0.310699,-0.279595,-0.248491,-0.248491,-0.201835,-0.186283,-0.201835,-0.201835,-0.201835,-0.217387,-0.248491,-0.186283,-0.201835,-0.139628,-0.092972,-0.046316,-0.046316,-0.030764,0.031443,0.046995,0.046995,0.015891,0.015891,0.046995,0.109203,0.140306,0.218066,0.264722,0.342481,0.358033,0.435793,0.435793,0.466896,0.466896,0.513552,0.544656,0.606863,0.637967,0.700175,0.731279,0.809038,0.762382,0.809038,0.840142,0.824590,0.824590,0.840142,0.824590,0.824590,0.855694,0.871246,0.949005,0.933453,0.871246,0.855694,0.824590,0.715727,0.637967,0.575760,0.498000,0.466896,0.420241,0.389137,0.373585,0.326929,0.280274,0.218066,0.186962,0.093651,0.015891,-0.046316,-0.046316,1.000000,123.000000
2.149242,-0.441318,-0.456467,-0.441318,-0.486766,-0.456467,-0.426168,-0.365571,-0.395869,-0.350421,-0.395869,-0.395869,-0.441318,-0.471617,-0.471617,-0.471617,-0.471617,-0.426168,-0.411019,-0.395869,-0.395869,-0.380720,-0.380720,-0.441318,-0.441318,-0.456467,-0.501916,-0.441318,-0.441318,-0.426168,-0.426168,-0.335272,-0.350421,-0.335272,-0.411019,-0.426168,-0.411019,-0.456467,-0.441318,-0.441318,-0.411019,-0.395869,-0.335272,-0.335272,-0.350421,-0.320122,-0.320122,-0.320122,-0.350421,-0.350421,-0.274674,-0.244375,-0.183777,-0.108030,-0.077731,0.013166,0.028316,0.043465,0.013166,0.013166,-0.032282,-0.001983,0.058615,0.043465,0.073764,0.043465,0.013166,-0.032282,-0.047432,-0.017133,-0.047432,-0.123179,-0.108030,-0.108030,-0.138328,-0.123179,-0.183777,-0.138328,-0.183777,-0.153478,-0.214076,-0.259524,-0.380720,-0.411019,-0.501916,-0.501916,-0.532215,-0.547364,-0.517065,-0.532215,-0.517065,-0.517065,-0.501916,-0.501916,-0.501916,-0.547364,-0.562514,-0.577663,-0.592813,-0.577663,-0.562514,-0.547364,-0.517065,-0.501916,-0.501916,-0.486766,-0.471617,-0.532215,-0.547364,-0.547364,-0.547364,-0.517065,-0.532215,-0.456467,-0.441318,-0.426168,-0.380720,-0.365571,-0.395869,-0.380720,-0.486766,-0.456467,-0.411019,-0.395869,-0.320122,-0.259524,-0.244375,-0.092880,0.058615,0.331305,0.725191,1.285722,1.937149,2.588576,3.300601,4.058075,4.754951,5.466976,5.739666,5.573022,4.906445,3.724787,2.240139,0.603996,-0.865503,-1.910817,-2.319852,-2.183507,-1.759322,-1.138194,-0.789756,-0.501916,-0.471617,-0.501916,-0.562514,-0.577663,-0.562514,-0.501916,-0.471617,-0.395869,-0.365571,-0.365571,-0.380720,-0.365571,-0.365571,-0.350421,-0.365571,-0.365571,-0.365571,-0.380720,-0.426168,-0.441318,-0.426168,-0.350421,-0.335272,-0.274674,-0.274674,-0.320122,-0.350421,-0.411019,-0.411019,-0.411019,-0.426168,-0.426168,-0.411019,-0.350421,-0.395869,-0.350421,-0.335272,-0.335272,-0.350421,-0.395869,-0.395869,-0.395869,-0.395869,-0.426168,-0.335272,-0.350421,-0.304973,-0.244375,-0.259524,-0.289823,-0.274674,-0.259524,-0.304973,-0.320122,-0.395869,-0.380720,-0.304973,-0.244375,-0.274674,-0.183777,-0.123179,-0.138328,-0.153478,-0.138328,-0.153478,-0.108030,-0.153478,-0.108030,-0.077731,-0.017133,0.013166,0.088914,0.149512,0.149512,0.179810,0.134362,0.134362,0.149512,0.194960,0.210109,0.316156,0.361604,0.422202,0.482800,0.528248,0.528248,0.528248,0.573697,0.634295,0.649444,0.694892,0.740341,0.816088,0.831238,0.876686,0.952433,0.997882,1.043330,1.013031,1.058480,0.997882,1.013031,0.952433,0.997882,0.952433,0.967583,0.952433,0.937284,0.891836,0.846387,0.770640,0.679743,0.588846,0.467650,0.407053,0.361604,0.316156,0.240408,0.225259,0.164661,0.179810,0.119213,0.088914,1.000000,123.000000
2.514275,-0.398259,-0.414998,-0.381521,-0.314566,-0.264350,-0.264350,-0.247611,-0.264350,-0.247611,-0.281088,-0.348043,-0.314566,-0.331305,-0.348043,-0.331305,-0.297827,-0.297827,-0.214134,-0.230872,-0.230872,-0.264350,-0.264350,-0.348043,-0.348043,-0.348043,-0.331305,-0.364782,-0.297827,-0.247611,-0.281088,-0.264350,-0.230872,-0.264350,-0.297827,-0.314566,-0.297827,-0.331305,-0.331305,-0.281088,-0.247611,-0.264350,-0.230872,-0.230872,-0.281088,-0.247611,-0.281088,-0.281088,-0.264350,-0.314566,-0.281088,-0.214134,-0.264350,-0.197395,-0.046747,0.036947,0.053686,0.053686,0.070424,0.053686,0.053686,0.003469,0.003469,0.036947,0.103902,0.187595,0.288027,0.321505,0.254550,0.204334,0.120640,0.020208,0.020208,0.003469,-0.030008,-0.046747,-0.030008,0.036947,0.036947,0.003469,-0.013269,-0.113701,-0.180656,-0.230872,-0.281088,-0.348043,-0.431737,-0.481953,-0.498692,-0.431737,-0.481953,-0.481953,-0.465214,-0.498692,-0.548908,-0.565646,-0.632601,-0.666079,-0.632601,-0.666079,-0.599124,-0.565646,-0.481953,-0.498692,-0.532169,-0.498692,-0.498692,-0.615863,-0.582385,-0.548908,-0.565646,-0.565646,-0.465214,-0.481953,-0.431737,-0.381521,-0.431737,-0.431737,-0.431737,-0.498692,-0.498692,-0.548908,-0.465214,-0.414998,-0.314566,-0.314566,-0.197395,-0.147179,-0.096963,0.020208,0.338244,0.840405,1.459737,2.212978,2.966220,3.769678,4.656829,5.426809,5.845277,5.778322,4.991603,3.736200,2.062330,0.338244,-1.151501,-2.139085,-2.591030,-2.423643,-1.904743,-1.385843,-1.000853,-0.816727,-0.749772,-0.666079,-0.649340,-0.649340,-0.582385,-0.582385,-0.498692,-0.465214,-0.431737,-0.448476,-0.448476,-0.448476,-0.448476,-0.431737,-0.465214,-0.532169,-0.465214,-0.498692,-0.515430,-0.481953,-0.448476,-0.398259,-0.398259,-0.331305,-0.381521,-0.448476,-0.431737,-0.481953,-0.465214,-0.498692,-0.465214,-0.431737,-0.431737,-0.364782,-0.364782,-0.398259,-0.398259,-0.398259,-0.414998,-0.431737,-0.398259,-0.481953,-0.515430,-0.431737,-0.398259,-0.364782,-0.281088,-0.331305,-0.297827,-0.348043,-0.364782,-0.398259,-0.448476,-0.398259,-0.331305,-0.331305,-0.281088,-0.281088,-0.180656,-0.214134,-0.180656,-0.147179,-0.163918,-0.163918,-0.147179,-0.113701,-0.130440,-0.147179,-0.063485,0.036947,0.036947,0.103902,0.170857,0.170857,0.087163,0.137379,0.204334,0.237811,0.271289,0.321505,0.388460,0.421937,0.488892,0.555847,0.606063,0.656279,0.656279,0.656279,0.689756,0.739972,0.756711,0.823666,0.907359,0.940837,0.991053,1.091485,1.108224,1.058008,0.991053,1.007792,0.957576,0.991053,0.924098,0.890621,0.940837,0.924098,0.890621,0.857143,0.773450,0.723234,0.589324,0.505631,0.388460,0.354982,0.288027,0.204334,0.187595,0.154118,0.137379,0.070424,-0.030008,-0.046747,-0.080224,1.000000,123.000000
2.395014,-0.258773,-0.306162,-0.274569,-0.306162,-0.369347,-0.369347,-0.369347,-0.353551,-0.337755,-0.337755,-0.306162,-0.290366,-0.321958,-0.353551,-0.306162,-0.353551,-0.369347,-0.400940,-0.448329,-0.432533,-0.416737,-0.369347,-0.369347,-0.353551,-0.290366,-0.306162,-0.337755,-0.321958,-0.369347,-0.432533,-0.448329,-0.448329,-0.432533,-0.385144,-0.385144,-0.369347,-0.385144,-0.306162,-0.337755,-0.306162,-0.321958,-0.416737,-0.416737,-0.353551,-0.353551,-0.353551,-0.337755,-0.306162,-0.274569,-0.242977,-0.211384,-0.211384,-0.195588,-0.179791,-0.116606,-0.116606,-0.085013,-0.037624,0.041358,0.072950,0.088747,0.183525,0.215118,0.215118,0.215118,0.151932,0.104543,0.104543,0.041358,-0.006031,-0.006031,0.057154,0.009765,0.057154,0.057154,0.088747,0.009765,-0.053420,-0.179791,-0.306162,-0.306162,-0.337755,-0.337755,-0.337755,-0.321958,-0.416737,-0.416737,-0.464126,-0.511515,-0.527311,-0.558904,-0.558904,-0.558904,-0.574700,-0.511515,-0.479922,-0.448329,-0.464126,-0.464126,-0.479922,-0.495718,-0.527311,-0.543107,-0.495718,-0.527311,-0.527311,-0.416737,-0.416737,-0.369347,-0.400940,-0.400940,-0.400940,-0.432533,-0.464126,-0.479922,-0.479922,-0.432533,-0.416737,-0.337755,-0.321958,-0.242977,-0.211384,-0.227180,-0.227180,-0.242977,-0.306162,-0.274569,-0.242977,-0.085013,0.215118,0.689008,1.384048,2.142273,2.932090,3.769297,4.574911,5.380525,5.838620,5.791230,5.143580,3.943057,2.395014,0.641619,-0.874831,-1.964779,-2.501855,-2.549244,-2.296503,-1.870001,-1.522481,-1.222351,-1.080183,-0.922220,-0.764256,-0.622089,-0.511515,-0.385144,-0.290366,-0.306162,-0.306162,-0.369347,-0.385144,-0.448329,-0.448329,-0.416737,-0.448329,-0.416737,-0.290366,-0.274569,-0.290366,-0.258773,-0.290366,-0.337755,-0.337755,-0.385144,-0.385144,-0.353551,-0.353551,-0.290366,-0.242977,-0.227180,-0.274569,-0.227180,-0.274569,-0.337755,-0.337755,-0.337755,-0.337755,-0.369347,-0.337755,-0.321958,-0.274569,-0.211384,-0.227180,-0.258773,-0.321958,-0.337755,-0.416737,-0.385144,-0.385144,-0.306162,-0.321958,-0.258773,-0.242977,-0.242977,-0.227180,-0.227180,-0.274569,-0.211384,-0.258773,-0.242977,-0.211384,-0.195588,-0.179791,-0.132402,-0.069217,-0.037624,-0.037624,-0.053420,-0.053420,-0.053420,-0.006031,-0.037624,0.025561,0.088747,0.104543,0.120339,0.215118,0.246710,0.294099,0.325692,0.309896,0.357285,0.341488,0.373081,0.404674,0.452063,0.467859,0.531045,0.594230,0.673212,0.704805,0.673212,0.720601,0.720601,0.736397,0.783786,0.831175,0.846972,0.878564,0.910157,0.973343,0.989139,0.989139,0.989139,0.910157,0.878564,0.846972,0.799583,0.704805,0.689008,0.673212,0.641619,0.625823,0.610026,0.546841,0.515248,0.404674,0.309896,0.230914,0.167729,0.088747,0.088747,0.088747,1.000000,123.000000
2.155577,-0.337542,-0.367222,-0.382062,-0.352382,-0.322702,-0.307862,-0.293022,-0.263342,-0.293022,-0.322702,-0.367222,-0.396902,-0.441422,-0.441422,-0.426582,-0.382062,-0.337542,-0.307862,-0.248502,-0.307862,-0.293022,-0.322702,-0.367222,-0.382062,-0.411742,-0.426582,-0.411742,-0.322702,-0.322702,-0.352382,-0.322702,-0.293022,-0.278182,-0.337542,-0.322702,-0.367222,-0.382062,-0.367222,-0.396902,-0.352382,-0.293022,-0.278182,-0.233662,-0.233662,-0.263342,-0.203982,-0.233662,-0.159463,-0.174302,-0.129783,-0.070423,-0.070423,0.003777,0.018617,0.033457,0.048297,0.048297,0.063137,0.092817,0.048297,0.048297,0.018617,-0.011063,-0.025903,0.018617,0.003777,0.018617,0.018617,-0.011063,-0.011063,-0.055583,-0.100103,-0.159463,-0.189142,-0.203982,-0.218822,-0.233662,-0.263342,-0.293022,-0.367222,-0.396902,-0.441422,-0.426582,-0.500782,-0.545302,-0.649182,-0.619502,-0.589822,-0.500782,-0.485942,-0.485942,-0.500782,-0.500782,-0.515622,-0.545302,-0.545302,-0.589822,-0.574982,-0.589822,-0.574982,-0.589822,-0.515622,-0.500782,-0.456262,-0.456262,-0.426582,-0.530462,-0.530462,-0.515622,-0.530462,-0.515622,-0.515622,-0.471102,-0.441422,-0.396902,-0.382062,-0.367222,-0.396902,-0.396902,-0.426582,-0.382062,-0.367222,-0.367222,-0.293022,-0.233662,-0.174302,-0.011063,0.196697,0.627057,1.161297,1.784577,2.407857,3.105337,3.817656,4.559656,5.242296,5.672656,5.642976,5.182936,4.188656,2.867897,1.294857,-0.189142,-1.435702,-2.148022,-2.326102,-2.073822,-1.598942,-1.109222,-0.753062,-0.589822,-0.574982,-0.589822,-0.678862,-0.634342,-0.604662,-0.545302,-0.485942,-0.367222,-0.367222,-0.337542,-0.337542,-0.352382,-0.352382,-0.382062,-0.367222,-0.441422,-0.411742,-0.396902,-0.396902,-0.382062,-0.382062,-0.367222,-0.337542,-0.322702,-0.322702,-0.307862,-0.337542,-0.367222,-0.396902,-0.456262,-0.396902,-0.382062,-0.426582,-0.352382,-0.337542,-0.367222,-0.382062,-0.367222,-0.337542,-0.382062,-0.396902,-0.396902,-0.396902,-0.367222,-0.382062,-0.382062,-0.367222,-0.307862,-0.322702,-0.293022,-0.337542,-0.352382,-0.382062,-0.426582,-0.441422,-0.441422,-0.367222,-0.337542,-0.278182,-0.233662,-0.233662,-0.203982,-0.218822,-0.248502,-0.263342,-0.263342,-0.218822,-0.203982,-0.144623,-0.100103,-0.085263,-0.011063,0.033457,0.033457,0.063137,0.048297,0.077977,0.092817,0.137337,0.152177,0.256057,0.315417,0.389617,0.434137,0.508337,0.493497,0.523177,0.523177,0.523177,0.552857,0.597377,0.686417,0.745777,0.805137,0.849657,0.923857,0.968377,0.998057,0.938697,0.968377,0.998057,0.983217,0.983217,0.953537,0.983217,0.968377,0.998057,0.909017,0.909017,0.849657,0.745777,0.656737,0.582537,0.478657,0.404457,0.300577,0.256057,0.226377,0.270897,0.196697,0.196697,0.167017,0.107657,1.000000,123.000000
2.317541,-0.449353,-0.401648,-0.401648,-0.353943,-0.338041,-0.401648,-0.338041,-0.385746,-0.417549,-0.417549,-0.433451,-0.449353,-0.449353,-0.449353,-0.385746,-0.353943,-0.353943,-0.353943,-0.353943,-0.417549,-0.449353,-0.449353,-0.465254,-0.497058,-0.417549,-0.385746,-0.369844,-0.322139,-0.338041,-0.338041,-0.369844,-0.353943,-0.369844,-0.417549,-0.417549,-0.417549,-0.385746,-0.353943,-0.322139,-0.290336,-0.306238,-0.274434,-0.306238,-0.353943,-0.338041,-0.369844,-0.369844,-0.353943,-0.258533,-0.194926,-0.083614,-0.004106,-0.004106,0.075403,0.043600,0.059501,-0.004106,0.027698,0.043600,0.075403,0.091305,0.186715,0.170813,0.170813,0.123108,0.091305,0.027698,-0.035909,-0.035909,-0.083614,-0.067712,-0.131319,-0.067712,-0.067712,-0.051811,-0.067712,-0.115417,-0.147221,-0.226729,-0.306238,-0.369844,-0.433451,-0.481156,-0.481156,-0.512960,-0.481156,-0.512960,-0.465254,-0.449353,-0.449353,-0.481156,-0.481156,-0.544763,-0.544763,-0.544763,-0.544763,-0.560665,-0.528861,-0.481156,-0.417549,-0.433451,-0.465254,-0.481156,-0.528861,-0.544763,-0.592468,-0.608370,-0.640173,-0.576566,-0.544763,-0.497058,-0.449353,-0.401648,-0.417549,-0.433451,-0.449353,-0.449353,-0.481156,-0.449353,-0.433451,-0.417549,-0.369844,-0.290336,-0.242631,-0.226729,-0.194926,-0.099516,0.043600,0.282125,0.775077,1.395243,2.047212,2.762788,3.494266,4.289350,5.068533,5.577387,5.720502,5.322960,4.400662,3.096723,1.490653,-0.099516,-1.387552,-2.134932,-2.357555,-2.119030,-1.594274,-1.180830,-0.830993,-0.687878,-0.719681,-0.767386,-0.830993,-0.799190,-0.735583,-0.640173,-0.465254,-0.353943,-0.306238,-0.274434,-0.338041,-0.385746,-0.417549,-0.449353,-0.449353,-0.433451,-0.465254,-0.433451,-0.417549,-0.385746,-0.385746,-0.353943,-0.322139,-0.338041,-0.369844,-0.385746,-0.369844,-0.433451,-0.433451,-0.433451,-0.417549,-0.417549,-0.338041,-0.306238,-0.338041,-0.338041,-0.353943,-0.401648,-0.417549,-0.433451,-0.433451,-0.433451,-0.369844,-0.353943,-0.322139,-0.322139,-0.306238,-0.338041,-0.417549,-0.417549,-0.385746,-0.417549,-0.417549,-0.369844,-0.338041,-0.242631,-0.226729,-0.210827,-0.210827,-0.210827,-0.210827,-0.242631,-0.258533,-0.290336,-0.194926,-0.179024,-0.131319,-0.067712,-0.051811,-0.051811,-0.020007,-0.004106,0.043600,0.059501,0.059501,0.091305,0.139010,0.186715,0.250321,0.298027,0.393437,0.409338,0.457043,0.504748,0.520650,0.504748,0.504748,0.520650,0.584257,0.679667,0.727372,0.838684,0.886389,0.902291,0.965897,0.965897,0.997701,1.013602,1.013602,1.013602,1.013602,0.997701,1.013602,1.045406,1.093111,1.140816,1.061307,1.013602,0.949996,0.838684,0.727372,0.616060,0.584257,0.520650,0.504748,0.457043,0.457043,0.425240,0.345732,0.266223,0.186715,0.107206,0.075403,1.000000,123.000000
2.348243,-0.395221,-0.411172,-0.459023,-0.506874,-0.459023,-0.379271,-0.363321,-0.315469,-0.299519,-0.299519,-0.299519,-0.331420,-0.363321,-0.379271,-0.395221,-0.363321,-0.411172,-0.379271,-0.331420,-0.315469,-0.315469,-0.267618,-0.299519,-0.299519,-0.363321,-0.379271,-0.379271,-0.411172,-0.379271,-0.299519,-0.283569,-0.283569,-0.331420,-0.299519,-0.363321,-0.347370,-0.363321,-0.379271,-0.395221,-0.379271,-0.395221,-0.363321,-0.315469,-0.347370,-0.283569,-0.251668,-0.219767,-0.251668,-0.251668,-0.251668,-0.219767,-0.203817,-0.140015,-0.076214,-0.012412,-0.028363,0.067340,0.051389,0.035439,0.035439,0.051389,0.115191,0.147091,0.178992,0.226843,0.210893,0.178992,0.178992,0.163042,0.099240,0.115191,0.067340,0.035439,0.019488,0.003538,-0.012412,-0.044313,-0.044313,-0.060263,-0.187866,-0.187866,-0.267618,-0.331420,-0.379271,-0.363321,-0.459023,-0.459023,-0.490924,-0.490924,-0.490924,-0.459023,-0.522824,-0.427122,-0.443072,-0.427122,-0.443072,-0.443072,-0.506874,-0.538775,-0.506874,-0.490924,-0.490924,-0.459023,-0.443072,-0.411172,-0.379271,-0.411172,-0.443072,-0.490924,-0.490924,-0.474973,-0.459023,-0.443072,-0.411172,-0.427122,-0.411172,-0.331420,-0.331420,-0.347370,-0.363321,-0.411172,-0.411172,-0.347370,-0.299519,-0.283569,-0.251668,-0.187866,-0.092164,0.131141,0.529900,1.104114,1.789980,2.491796,3.257414,4.086834,4.900303,5.570219,5.857326,5.570219,4.645097,3.337166,1.694278,0.067340,-1.320343,-2.245465,-2.580423,-2.516621,-2.181663,-1.766953,-1.304393,-1.081087,-0.985385,-0.857782,-0.809931,-0.714229,-0.634477,-0.490924,-0.411172,-0.347370,-0.363321,-0.363321,-0.379271,-0.411172,-0.395221,-0.395221,-0.347370,-0.331420,-0.331420,-0.331420,-0.379271,-0.395221,-0.411172,-0.427122,-0.363321,-0.331420,-0.331420,-0.315469,-0.315469,-0.283569,-0.347370,-0.363321,-0.363321,-0.363321,-0.347370,-0.363321,-0.331420,-0.315469,-0.315469,-0.283569,-0.299519,-0.283569,-0.315469,-0.283569,-0.347370,-0.363321,-0.347370,-0.347370,-0.363321,-0.315469,-0.267618,-0.251668,-0.267618,-0.235718,-0.251668,-0.251668,-0.315469,-0.331420,-0.315469,-0.315469,-0.315469,-0.251668,-0.203817,-0.187866,-0.140015,-0.076214,-0.108115,-0.155966,-0.251668,-0.203817,-0.155966,-0.187866,-0.092164,-0.028363,-0.060263,-0.012412,0.035439,0.067340,0.115191,0.083290,0.083290,0.115191,0.163042,0.194943,0.274694,0.354446,0.402297,0.482049,0.513950,0.609652,0.529900,0.545851,0.545851,0.561801,0.577752,0.609652,0.689404,0.769156,0.848908,0.896759,0.928660,0.944610,0.976511,0.896759,0.896759,0.912709,0.912709,0.896759,0.928660,0.944610,0.944610,0.944610,0.896759,0.848908,0.721305,0.641553,0.513950,0.529900,0.466099,0.370397,0.354446,0.370397,0.306595,0.258744,0.178992,1.000000,123.000000
2.160760,-0.362222,-0.377796,-0.362222,-0.315500,-0.331074,-0.253204,-0.268778,-0.284352,-0.299926,-0.299926,-0.315500,-0.377796,-0.362222,-0.331074,-0.331074,-0.315500,-0.299926,-0.299926,-0.253204,-0.315500,-0.299926,-0.315500,-0.393370,-0.362222,-0.440092,-0.377796,-0.346648,-0.299926,-0.268778,-0.253204,-0.253204,-0.331074,-0.299926,-0.331074,-0.315500,-0.331074,-0.408944,-0.393370,-0.346648,-0.299926,-0.284352,-0.237630,-0.253204,-0.237630,-0.268778,-0.284352,-0.299926,-0.284352,-0.299926,-0.268778,-0.206482,-0.128613,-0.113039,-0.004021,0.011553,0.073849,0.042701,0.042701,-0.019595,-0.019595,-0.004021,0.073849,0.104997,0.182867,0.198441,0.229589,0.167293,0.167293,0.120571,0.058275,0.011553,-0.035169,-0.035169,-0.050743,-0.019595,-0.019595,0.027127,0.011553,-0.050743,-0.144187,-0.222056,-0.299926,-0.393370,-0.424518,-0.471240,-0.502388,-0.502388,-0.502388,-0.517962,-0.440092,-0.517962,-0.455666,-0.517962,-0.517962,-0.549110,-0.549110,-0.564684,-0.533536,-0.564684,-0.549110,-0.502388,-0.486814,-0.455666,-0.486814,-0.517962,-0.564684,-0.595832,-0.580258,-0.595832,-0.580258,-0.533536,-0.502388,-0.486814,-0.455666,-0.440092,-0.424518,-0.362222,-0.408944,-0.424518,-0.408944,-0.440092,-0.377796,-0.377796,-0.299926,-0.268778,-0.190908,-0.159761,-0.081891,0.058275,0.307458,0.805825,1.459932,2.176334,2.986180,3.920618,4.808334,5.555884,5.898511,5.758345,5.073091,3.889470,2.378795,0.665659,-0.829441,-2.028636,-2.480281,-2.402411,-1.950766,-1.390104,-0.969607,-0.704849,-0.595832,-0.626979,-0.642553,-0.673701,-0.611405,-0.533536,-0.471240,-0.377796,-0.299926,-0.315500,-0.331074,-0.331074,-0.362222,-0.408944,-0.408944,-0.424518,-0.424518,-0.424518,-0.424518,-0.424518,-0.393370,-0.346648,-0.315500,-0.284352,-0.315500,-0.346648,-0.377796,-0.362222,-0.393370,-0.377796,-0.393370,-0.408944,-0.331074,-0.299926,-0.377796,-0.331074,-0.346648,-0.315500,-0.362222,-0.362222,-0.424518,-0.408944,-0.408944,-0.377796,-0.377796,-0.315500,-0.284352,-0.331074,-0.315500,-0.284352,-0.331074,-0.362222,-0.393370,-0.393370,-0.377796,-0.331074,-0.299926,-0.284352,-0.222056,-0.222056,-0.222056,-0.253204,-0.206482,-0.268778,-0.253204,-0.206482,-0.222056,-0.175335,-0.097465,-0.081891,-0.050743,0.011553,0.042701,0.042701,0.027127,0.073849,0.089423,0.104997,0.120571,0.229589,0.291884,0.338606,0.463198,0.494346,0.525494,0.556642,0.541068,0.603364,0.650086,0.650086,0.634512,0.743529,0.805825,0.883695,0.945991,0.961565,0.992713,0.945991,0.977139,0.961565,0.945991,0.945991,0.961565,0.961565,0.914843,0.945991,0.930417,0.821399,0.836973,0.727955,0.618938,0.525494,0.447624,0.369754,0.276310,0.214015,0.167293,0.167293,0.120571,0.058275,0.011553,-0.081891,-0.128613,1.000000,123.000000
2.498976,-0.307820,-0.339715,-0.355663,-0.339715,-0.291872,-0.275924,-0.244029,-0.259977,-0.307820,-0.259977,-0.339715,-0.323767,-0.339715,-0.387558,-0.435401,-0.371610,-0.307820,-0.275924,-0.307820,-0.291872,-0.259977,-0.307820,-0.323767,-0.355663,-0.435401,-0.403506,-0.387558,-0.419454,-0.323767,-0.307820,-0.323767,-0.275924,-0.259977,-0.259977,-0.291872,-0.323767,-0.339715,-0.371610,-0.387558,-0.387558,-0.355663,-0.371610,-0.371610,-0.275924,-0.259977,-0.244029,-0.291872,-0.323767,-0.323767,-0.339715,-0.323767,-0.259977,-0.196186,-0.116447,-0.052656,0.027082,0.027082,0.058977,0.058977,0.090873,0.043030,0.058977,0.122768,0.138716,0.218455,0.218455,0.218455,0.202507,0.154664,0.074925,0.027082,-0.020761,-0.068604,-0.100500,-0.084552,-0.068604,-0.068604,-0.036709,-0.036709,-0.068604,-0.100500,-0.212133,-0.259977,-0.355663,-0.419454,-0.467297,-0.562983,-0.531087,-0.531087,-0.467297,-0.467297,-0.483244,-0.435401,-0.499192,-0.483244,-0.531087,-0.547035,-0.547035,-0.562983,-0.578931,-0.547035,-0.515140,-0.467297,-0.467297,-0.483244,-0.467297,-0.483244,-0.515140,-0.531087,-0.547035,-0.562983,-0.531087,-0.515140,-0.451349,-0.419454,-0.435401,-0.451349,-0.403506,-0.419454,-0.435401,-0.435401,-0.403506,-0.403506,-0.371610,-0.323767,-0.291872,-0.212133,-0.100500,0.122768,0.457670,1.015840,1.653748,2.307603,3.073093,3.870478,4.747601,5.449300,5.879888,5.704464,5.002765,3.774792,2.195969,0.441722,-1.073309,-2.062067,-2.444812,-2.301282,-1.806903,-1.232786,-0.818146,-0.547035,-0.547035,-0.578931,-0.594878,-0.642721,-0.610826,-0.531087,-0.483244,-0.451349,-0.419454,-0.387558,-0.387558,-0.371610,-0.371610,-0.419454,-0.387558,-0.403506,-0.419454,-0.419454,-0.419454,-0.451349,-0.419454,-0.483244,-0.435401,-0.371610,-0.339715,-0.355663,-0.339715,-0.371610,-0.419454,-0.403506,-0.451349,-0.483244,-0.435401,-0.467297,-0.387558,-0.355663,-0.323767,-0.323767,-0.307820,-0.355663,-0.403506,-0.451349,-0.467297,-0.419454,-0.435401,-0.419454,-0.387558,-0.339715,-0.323767,-0.307820,-0.275924,-0.339715,-0.371610,-0.403506,-0.355663,-0.355663,-0.339715,-0.323767,-0.307820,-0.291872,-0.212133,-0.196186,-0.212133,-0.212133,-0.259977,-0.259977,-0.244029,-0.244029,-0.180238,-0.148343,-0.132395,-0.068604,0.011134,0.027082,0.043030,0.058977,0.106821,0.106821,0.122768,0.138716,0.202507,0.250350,0.330088,0.409827,0.409827,0.489565,0.537409,0.537409,0.601199,0.601199,0.633095,0.649042,0.696886,0.792572,0.856363,0.936101,1.015840,0.983944,1.063683,1.079630,1.047735,1.063683,1.047735,0.967996,0.967996,0.999892,0.999892,0.952049,0.983944,0.888258,0.776624,0.712833,0.585252,0.489565,0.441722,0.377932,0.346036,0.250350,0.186559,0.138716,0.154664,0.090873,0.011134,1.000000,123.000000
2.766250,-0.322451,-0.338210,-0.306693,-0.353969,-0.353969,-0.385486,-0.401245,-0.401245,-0.385486,-0.417003,-0.369727,-0.353969,-0.353969,-0.338210,-0.353969,-0.369727,-0.401245,-0.385486,-0.417003,-0.385486,-0.401245,-0.432762,-0.369727,-0.353969,-0.338210,-0.338210,-0.338210,-0.306693,-0.338210,-0.353969,-0.353969,-0.464279,-0.401245,-0.401245,-0.353969,-0.338210,-0.306693,-0.290934,-0.290934,-0.259417,-0.306693,-0.290934,-0.322451,-0.353969,-0.385486,-0.338210,-0.338210,-0.275175,-0.243658,-0.227899,-0.243658,-0.227899,-0.243658,-0.212141,-0.243658,-0.212141,-0.133347,-0.070312,-0.023036,0.039998,0.118792,0.103033,0.118792,0.150309,0.197585,0.181827,0.213344,0.181827,0.150309,0.118792,0.087274,0.118792,0.150309,0.134550,0.150309,0.118792,0.103033,-0.007278,-0.054554,-0.149106,-0.196382,-0.306693,-0.306693,-0.290934,-0.322451,-0.338210,-0.306693,-0.353969,-0.385486,-0.448521,-0.480038,-0.511555,-0.527314,-0.511555,-0.495797,-0.432762,-0.432762,-0.385486,-0.417003,-0.432762,-0.448521,-0.464279,-0.495797,-0.511555,-0.495797,-0.480038,-0.464279,-0.401245,-0.369727,-0.385486,-0.369727,-0.385486,-0.353969,-0.448521,-0.417003,-0.448521,-0.417003,-0.401245,-0.385486,-0.338210,-0.322451,-0.275175,-0.259417,-0.275175,-0.275175,-0.212141,-0.227899,-0.196382,0.008481,0.355172,0.843691,1.568591,2.309249,3.081424,3.932393,4.783362,5.476744,5.823435,5.665848,4.877914,3.648737,2.025592,0.323655,-1.078868,-2.103182,-2.544426,-2.481391,-2.118941,-1.724974,-1.378283,-1.141903,-0.984316,-0.905523,-0.810970,-0.747936,-0.543073,-0.417003,-0.322451,-0.275175,-0.275175,-0.322451,-0.353969,-0.401245,-0.417003,-0.417003,-0.369727,-0.353969,-0.338210,-0.322451,-0.290934,-0.322451,-0.322451,-0.385486,-0.353969,-0.385486,-0.385486,-0.385486,-0.353969,-0.369727,-0.353969,-0.322451,-0.259417,-0.275175,-0.290934,-0.322451,-0.369727,-0.385486,-0.385486,-0.401245,-0.385486,-0.353969,-0.290934,-0.259417,-0.275175,-0.275175,-0.322451,-0.322451,-0.401245,-0.353969,-0.353969,-0.385486,-0.385486,-0.369727,-0.290934,-0.259417,-0.243658,-0.227899,-0.227899,-0.259417,-0.275175,-0.290934,-0.322451,-0.290934,-0.259417,-0.259417,-0.212141,-0.196382,-0.117588,-0.038795,-0.038795,-0.038795,-0.054554,-0.086071,-0.117588,-0.038795,0.008481,0.071516,0.134550,0.213344,0.307896,0.323655,0.355172,0.370931,0.386689,0.370931,0.386689,0.418207,0.465483,0.528518,0.591552,0.638828,0.733380,0.812174,0.875209,0.875209,0.859450,0.859450,0.922485,0.922485,0.906726,0.938243,0.954002,1.048554,1.048554,1.017037,1.064313,0.922485,0.890967,0.827933,0.749139,0.670346,0.638828,0.544276,0.481242,0.449724,0.433965,0.355172,0.292137,0.213344,0.103033,0.039998,-0.038795,-0.101830,-0.117588,1.000000,123.000000
2.588556,-0.364485,-0.349024,-0.349024,-0.333563,-0.302641,-0.333563,-0.333563,-0.364485,-0.395407,-0.410868,-0.426329,-0.395407,-0.395407,-0.333563,-0.333563,-0.333563,-0.318102,-0.349024,-0.333563,-0.410868,-0.379946,-0.395407,-0.379946,-0.426329,-0.441789,-0.395407,-0.364485,-0.318102,-0.287180,-0.333563,-0.333563,-0.379946,-0.410868,-0.395407,-0.395407,-0.426329,-0.364485,-0.333563,-0.318102,-0.271719,-0.287180,-0.302641,-0.333563,-0.349024,-0.333563,-0.364485,-0.395407,-0.364485,-0.333563,-0.287180,-0.209875,-0.163492,-0.117110,-0.101649,-0.024344,-0.039805,-0.055266,-0.024344,-0.070727,-0.024344,0.006578,0.114805,0.207570,0.238492,0.238492,0.192109,0.099344,0.052961,0.006578,-0.070727,-0.101649,-0.086188,-0.086188,-0.055266,-0.008883,-0.024344,-0.039805,-0.101649,-0.148032,-0.225336,-0.302641,-0.426329,-0.457250,-0.503633,-0.503633,-0.441789,-0.457250,-0.457250,-0.426329,-0.503633,-0.519094,-0.580938,-0.596399,-0.580938,-0.580938,-0.580938,-0.534555,-0.534555,-0.488172,-0.457250,-0.472711,-0.472711,-0.519094,-0.519094,-0.596399,-0.580938,-0.611860,-0.627321,-0.596399,-0.534555,-0.488172,-0.457250,-0.503633,-0.441789,-0.472711,-0.441789,-0.503633,-0.503633,-0.457250,-0.503633,-0.472711,-0.379946,-0.287180,-0.271719,-0.271719,-0.225336,-0.209875,-0.086188,0.099344,0.454945,1.042461,1.753665,2.511251,3.392525,4.258338,5.062307,5.711666,5.866276,5.510674,4.583017,3.206993,1.552672,-0.163492,-1.554977,-2.343486,-2.420790,-2.111571,-1.539517,-1.013844,-0.720086,-0.565477,-0.519094,-0.580938,-0.550016,-0.519094,-0.503633,-0.410868,-0.364485,-0.364485,-0.318102,-0.318102,-0.333563,-0.379946,-0.410868,-0.379946,-0.441789,-0.410868,-0.379946,-0.395407,-0.379946,-0.379946,-0.318102,-0.318102,-0.302641,-0.318102,-0.349024,-0.379946,-0.395407,-0.410868,-0.426329,-0.395407,-0.349024,-0.318102,-0.318102,-0.318102,-0.318102,-0.349024,-0.333563,-0.364485,-0.379946,-0.349024,-0.379946,-0.364485,-0.333563,-0.333563,-0.302641,-0.318102,-0.271719,-0.318102,-0.318102,-0.318102,-0.333563,-0.333563,-0.364485,-0.318102,-0.240797,-0.240797,-0.194414,-0.225336,-0.209875,-0.225336,-0.271719,-0.287180,-0.240797,-0.271719,-0.271719,-0.209875,-0.148032,-0.117110,-0.055266,-0.039805,-0.008883,0.022039,0.022039,0.052961,0.052961,0.068422,0.114805,0.161187,0.238492,0.300336,0.408562,0.424023,0.485867,0.485867,0.454945,0.501328,0.563172,0.594094,0.640477,0.717781,0.779625,0.826008,0.872391,0.903313,0.949696,0.996078,0.996078,0.949696,0.965156,0.934235,0.934235,0.996078,1.027000,1.027000,1.042461,1.011539,0.980617,0.887852,0.795086,0.717781,0.655938,0.563172,0.485867,0.470406,0.424023,0.393102,0.362180,0.346719,0.223031,0.161187,0.052961,-0.008883,-0.039805,1.000000,123.000000
2.646734,-0.534197,-0.550344,-0.485756,-0.501903,-0.485756,-0.388875,-0.372728,-0.372728,-0.405022,-0.421169,-0.534197,-0.501903,-0.469609,-0.469609,-0.469609,-0.453463,-0.388875,-0.356581,-0.388875,-0.372728,-0.437316,-0.405022,-0.469609,-0.485756,-0.469609,-0.518050,-0.501903,-0.518050,-0.469609,-0.388875,-0.356581,-0.372728,-0.356581,-0.372728,-0.388875,-0.437316,-0.437316,-0.453463,-0.437316,-0.421169,-0.340435,-0.324288,-0.356581,-0.340435,-0.372728,-0.388875,-0.356581,-0.340435,-0.388875,-0.356581,-0.308141,-0.243553,-0.162819,-0.082085,-0.001350,-0.001350,0.063237,-0.049791,-0.049791,-0.017497,0.014796,0.047090,0.063237,0.111678,0.192412,0.208559,0.208559,0.160118,0.079384,0.047090,-0.017497,-0.082085,-0.065938,-0.130525,-0.114378,-0.114378,-0.017497,-0.001350,-0.065938,-0.146672,-0.211260,-0.308141,-0.405022,-0.469609,-0.501903,-0.518050,-0.518050,-0.485756,-0.501903,-0.453463,-0.469609,-0.453463,-0.550344,-0.485756,-0.518050,-0.550344,-0.534197,-0.518050,-0.550344,-0.566491,-0.469609,-0.469609,-0.405022,-0.421169,-0.421169,-0.469609,-0.469609,-0.485756,-0.566491,-0.534197,-0.534197,-0.485756,-0.453463,-0.453463,-0.453463,-0.405022,-0.405022,-0.388875,-0.388875,-0.388875,-0.388875,-0.388875,-0.388875,-0.308141,-0.243553,-0.243553,-0.162819,-0.065938,0.063237,0.192412,0.612230,1.241958,2.017007,2.824350,3.712427,4.665092,5.520875,5.989134,5.940694,5.068763,3.647840,1.807098,-0.082085,-1.599890,-2.407233,-2.520261,-2.068148,-1.486862,-0.954015,-0.550344,-0.453463,-0.421169,-0.485756,-0.518050,-0.501903,-0.518050,-0.437316,-0.437316,-0.372728,-0.340435,-0.356581,-0.308141,-0.324288,-0.324288,-0.340435,-0.356581,-0.356581,-0.356581,-0.372728,-0.437316,-0.437316,-0.308141,-0.324288,-0.275847,-0.227406,-0.275847,-0.275847,-0.356581,-0.405022,-0.453463,-0.469609,-0.405022,-0.405022,-0.340435,-0.340435,-0.324288,-0.275847,-0.291994,-0.291994,-0.340435,-0.372728,-0.356581,-0.388875,-0.356581,-0.388875,-0.324288,-0.324288,-0.259700,-0.243553,-0.275847,-0.291994,-0.340435,-0.324288,-0.340435,-0.324288,-0.356581,-0.308141,-0.259700,-0.227406,-0.178966,-0.162819,-0.195113,-0.146672,-0.146672,-0.195113,-0.178966,-0.162819,-0.146672,-0.130525,-0.114378,-0.065938,-0.001350,0.063237,0.079384,0.111678,0.143971,0.111678,0.160118,0.160118,0.176265,0.224706,0.305440,0.386174,0.466908,0.515349,0.579936,0.579936,0.547643,0.612230,0.660671,0.676818,0.709111,0.757552,0.854433,0.919021,0.999755,1.015902,1.015902,1.096636,1.128930,1.048195,1.032049,1.048195,1.048195,1.080489,1.064342,1.048195,0.983608,0.967461,0.919021,0.822139,0.757552,0.709111,0.612230,0.531496,0.466908,0.337734,0.321587,0.256999,0.256999,0.240852,0.160118,0.111678,0.063237,1.000000,123.000000
2.698846,-0.287026,-0.240614,-0.194201,-0.225143,-0.225143,-0.209672,-0.225143,-0.256085,-0.287026,-0.333439,-0.302497,-0.333439,-0.302497,-0.256085,-0.209672,-0.209672,-0.163260,-0.178730,-0.271555,-0.302497,-0.348910,-0.379851,-0.364380,-0.287026,-0.240614,-0.240614,-0.147789,-0.178730,-0.147789,-0.209672,-0.209672,-0.240614,-0.302497,-0.348910,-0.317968,-0.333439,-0.317968,-0.287026,-0.256085,-0.256085,-0.271555,-0.271555,-0.287026,-0.256085,-0.302497,-0.348910,-0.333439,-0.317968,-0.317968,-0.225143,-0.147789,-0.147789,-0.132318,-0.070435,-0.039493,-0.024022,-0.054964,-0.039493,0.006920,0.006920,0.037861,0.068803,0.115216,0.177099,0.254453,0.285395,0.300866,0.238982,0.208041,0.115216,0.084274,0.084274,-0.024022,0.022391,0.084274,0.161628,0.146157,0.115216,0.068803,-0.039493,-0.147789,-0.240614,-0.348910,-0.410793,-0.333439,-0.364380,-0.302497,-0.302497,-0.317968,-0.348910,-0.410793,-0.426264,-0.457206,-0.519089,-0.519089,-0.519089,-0.457206,-0.441735,-0.441735,-0.410793,-0.410793,-0.395322,-0.441735,-0.472676,-0.472676,-0.519089,-0.519089,-0.488147,-0.519089,-0.441735,-0.457206,-0.395322,-0.395322,-0.348910,-0.333439,-0.379851,-0.379851,-0.410793,-0.426264,-0.395322,-0.333439,-0.317968,-0.256085,-0.240614,-0.287026,-0.225143,-0.225143,-0.178730,-0.024022,0.269924,0.764991,1.461179,2.172837,2.977321,3.797275,4.617230,5.437185,5.854897,5.808485,5.189651,3.982926,2.373958,0.532928,-1.091510,-2.220881,-2.731419,-2.715948,-2.298235,-1.803169,-1.354514,-1.060568,-0.828506,-0.689268,-0.627385,-0.565501,-0.519089,-0.457206,-0.472676,-0.426264,-0.379851,-0.379851,-0.364380,-0.395322,-0.395322,-0.426264,-0.441735,-0.457206,-0.441735,-0.410793,-0.364380,-0.379851,-0.333439,-0.317968,-0.333439,-0.364380,-0.395322,-0.395322,-0.457206,-0.457206,-0.457206,-0.426264,-0.395322,-0.379851,-0.348910,-0.333439,-0.348910,-0.333439,-0.379851,-0.426264,-0.457206,-0.441735,-0.410793,-0.395322,-0.364380,-0.348910,-0.348910,-0.317968,-0.333439,-0.317968,-0.333439,-0.395322,-0.395322,-0.410793,-0.395322,-0.333439,-0.317968,-0.287026,-0.209672,-0.225143,-0.209672,-0.209672,-0.209672,-0.225143,-0.209672,-0.271555,-0.209672,-0.116847,-0.054964,-0.024022,0.022391,-0.008551,0.037861,0.068803,0.115216,0.146157,0.130686,0.177099,0.192570,0.223511,0.285395,0.362749,0.440103,0.455574,0.501987,0.548399,0.532928,0.517457,0.532928,0.548399,0.641224,0.672166,0.734049,0.811403,0.904228,0.904228,0.904228,0.904228,0.857816,0.857816,0.811403,0.780462,0.764991,0.749520,0.749520,0.718578,0.703107,0.641224,0.594812,0.517457,0.409162,0.269924,0.192570,0.161628,0.130686,0.130686,0.130686,0.146157,0.099745,0.084274,0.037861,-0.039493,-0.132318,-0.163260,-0.178730,1.000000,123.000000
